20528,372
21040,371
20872,411
20904,399
20568,392
20472,384
20568,381
20512,377
20536,385
20456,379
20584,379
20544,382
20872,385
20768,388
20600,388
20696,383
20736,389
20448,383
20504,395
20648,395
20896,387
20760,391
20744,392
20960,382
21136,389
21080,392
20952,387
21016,377
20968,375
21328,385
23776,373
21056,374
20568,366
20536,353
20544,349
20648,352
20776,350
21368,342
20776,339
20872,348
20744,340
20520,334
20440,329
21016,328
20536,339
20600,340
20968,333
21328,336
20520,339
20616,332
23288,349
20656,345
20920,343
20632,341
20568,350
20808,356
20864,349
20472,349
20704,346
20928,348
20944,342
20856,340
21072,342
20816,354
20776,357
21144,353
21216,354
22744,360
20648,359
20952,359
20856,369
21920,370
20920,370
20848,367
20464,368
20568,368
20848,370
20640,369
20496,370
20576,371
20600,368
20656,370
20976,366
20608,369
20840,369
20640,371
20544,367
20728,370
20856,366
20360,368
20800,365
20920,366
21056,362
20920,366
20912,363
20880,363
20504,360
20920,361
20784,359
22112,357
20896,355
20944,357
21056,357
20400,355
21000,354
20960,351
20488,352
20544,352
20416,348
20496,350
20520,348
20456,351
20816,346
20928,351
20504,348
20952,348
20920,345
21408,352
20976,349
20848,348
20512,345
20992,346
20544,345
20672,348
20792,347
20584,350
20672,348
20800,350
20872,347
20536,353
20720,351
21136,352
20736,352
20912,359
21008,357
21608,355
20776,353
20768,354
20496,350
20840,349
20752,345
20664,346
20632,344
20768,347
20704,346
20680,348
20976,347
21072,347
20768,349
21120,353
20744,352
20872,356
20576,355
20568,357
6968,356
20552,357
22152,356
20600,356
20616,358
20632,358
20744,356
21144,357
21168,360
20520,358
20768,362
21064,360
20768,361
20960,362
20720,363
20488,361
20664,362
20944,361
21224,364
22320,361
22376,362
20904,363
20576,361
20568,360
23824,357
20688,360
20792,358
22136,356
20592,355
20624,359
20696,356
21080,358
20536,357
20736,360
20720,357
21392,358
20424,357
20672,357
21296,356
20824,359
20584,357
20896,359
20552,358
20968,357
20728,359
20560,362
20672,361
23992,360
20552,364
20528,363
20792,365
20600,365
20720,367
20848,364
20552,366
22648,366
20520,371
20512,370
20672,374
20568,374
5568,378
20752,377
20904,381
21280,383
20736,385
20480,386
22448,386
22384,391
20528,387
20464,391
20560,389
3456,392
21440,393
20536,392
20536,393
20624,392
20616,390
20880,389
20984,386
21312,384
20456,380
20904,379
21000,378
20600,376
21024,373
21392,370
21112,368
20904,368
20856,362
20944,362
21752,360
20592,362
20808,356
20896,357
20728,354
20504,357
20464,355
20712,354
20664,352
23128,355
21008,352
20936,353
20624,353
20672,352
20664,350
21864,347
20672,346
20632,346
21192,344
20800,345
21056,346
20744,345
20944,348
21120,347
20816,351
20992,353
22440,354
20688,357
20992,362
20552,363
20584,367
20944,367
20616,371
20984,371
20808,372
20624,370
20744,373
20552,372
20784,375
22528,373
21048,375
21296,376
20568,378
20640,375
20528,374
20912,372
21008,370
20472,365
20928,364
20824,358
21048,359
23840,354
21456,348
20448,348
20728,342
20872,343
20912,338
20448,339
20696,334
20904,336
21496,334
20736,333
20568,333
20520,334
20704,330
20552,332
21344,332
20768,333
20824,330
20624,331
21144,332
21392,333
20920,331
20872,331
20448,331
20520,334
20760,332
20968,334
20840,334
20816,335
20640,336
20792,336
20648,334
20776,335
20616,331
20752,334
20680,331
21016,332
20528,330
20672,330
20952,330
20472,332
20576,332
20840,332
21184,329
20944,332
20872,333
20896,331
20688,330
20392,334
21424,335
20544,337
20416,333
20800,332
21088,334
20840,334
20784,332
20808,334
21160,332
21080,334
20696,332
20592,334
20920,332
20488,332
20560,329
20792,330
20560,331
21040,331
20768,331
21248,333
21600,332
20768,331
21168,328
20952,331
20520,328
20480,331
20688,328
21240,330
20568,329
20552,332
20480,333
20528,336
20688,333
20920,336
20952,336
21568,339
21328,337
20784,341
20592,343
20816,347
21264,348
20992,352
20496,354
20624,362
20600,363
20680,367
20840,366
20968,375
20952,377
20560,378
20520,375
20392,381
20960,378
20456,382
20488,380
21416,384
21072,383
21096,385
20992,380
20920,383
21272,379
20968,381
21016,375
20800,372
21024,368
25424,365
20664,364
20728,357
20592,354
20608,350
20464,347
22992,345
20784,342
20640,342
20800,344
20856,342
20552,340
20568,340
20528,339
20712,338
20920,339
20376,337
20768,338
20560,336
20968,337
3128,334
20424,337
20504,336
20824,338
21208,336
20472,336
20584,338
20896,340
20640,338
20544,340
20744,337
20576,338
22080,335
21008,340
20496,338
20464,335
20464,335
20856,336
20672,336
20800,337
20848,334
20456,337
20576,336
20864,335
20496,336
20496,334
20632,337
20696,335
20656,335
20768,335
20728,339
20608,337
20400,339
20856,334
20464,336
21064,337
20720,336
21072,332
20800,335
20688,334
20832,337
20888,333
20624,336
20472,334
20472,334
20824,334
20904,336
20520,335
20440,337
4208,335
20440,334
20560,335
20496,333
20560,334
20800,334
20704,334
20704,337
21504,336
21144,336
20896,336
20832,336
20824,336
23352,337
20624,335
23144,336
21704,336
20896,336
20920,336
20640,334
20640,336
20944,336
20800,339
20976,335
20760,338
20760,335
21168,337
20944,336
23696,338
20704,336
20464,335
20792,335
20952,335
20824,336
20840,335
20752,335
22280,336
20696,337
20904,335
20848,337
20776,336
20744,338
20712,334
20976,335
20776,336
20696,338
20856,335
20496,336
20840,335
20928,337
20800,336
20888,338
20920,338
21040,337
20808,336
20792,339
4736,336
20768,337
20720,336
20528,337
6568,337
20680,334
20544,336
20600,338
20728,335
20832,336
22648,337
20752,336
20848,336
20744,335
20600,337
20432,336
20544,338
20856,337
22936,337
20576,336
20808,338
21568,336
20416,340
4656,340
20496,342
20704,340
20896,340
20984,339
21104,341
20544,338
20768,339
20640,336
20832,337
20640,337
20568,341
20600,339
20776,336
20688,336
22440,340
20552,338
20624,338
20872,336
21600,340
20816,338
20448,341
20744,340
20784,346
21248,346
21024,347
20840,345
20816,348
20760,347
20520,349
20616,348
20488,348
22688,350
20704,348
20672,348
20992,347
20928,347
20648,348
20744,347
21000,347
21088,347
20832,346
20880,345
20616,344
20824,344
20480,344
20960,345
20528,345
20664,345
20504,345
20424,343
20616,347
20376,348
21936,347
21024,346
20872,347
20928,346
21216,345
20704,344
20640,345
20896,346
20528,347
20536,344
20792,346
20520,343
20816,344
20440,343
20576,347
20672,346
20848,346
21248,341
21008,344
20608,343
20696,343
20560,340
20696,342
20672,339
20984,343
20864,340
21120,342
20632,341
20408,342
20608,340
20640,346
20632,342
20544,344
20920,341
20896,344
21128,343
20568,344
20696,341
20544,343
20512,342
20864,342
21352,340
20872,342
20824,341
21216,342
20792,340
21080,342
20592,341
20816,344
20536,341
20640,343
20424,342
20448,342
21664,341
20752,342
20800,343
21096,342
20480,343
3640,342
20712,343
21328,343
20496,342
2064,340
20288,341
20544,341
20632,343
20432,339
20592,342
20944,341
20432,340
21704,338
20600,339
20568,339
20616,341
20504,340
20488,342
20840,343
21008,343
20672,342
20496,340
20488,341
20664,341
20800,341
20416,341
20656,343
20672,342
20624,341
20792,340
21040,344
3016,342
20664,343
20512,341
20920,340
21544,340
7200,339
20520,341
20656,343
20520,344
23952,342
20584,345
20568,343
20744,344
20848,341
21168,342
20896,341
20800,339
21640,340
23072,338
20672,341
20696,339
20672,341
20856,340
20696,342
20424,338
20744,343
20824,343
21752,345
20928,343
20496,344
20768,342
21000,344
21096,343
20520,343
20696,342
20568,344
20552,341
20688,340
20680,338
20592,342
20560,342
20584,344
20664,344
20632,342
21232,341
20832,342
21064,340
20520,343
20680,341
20568,341
20704,342
20992,344
20968,343
20760,342
20736,341
20672,342
20520,342
20464,341
20768,344
21096,341
20872,343
20616,343
20760,345
20536,343
21696,343
21024,342
20840,343
20808,344
21008,342
20728,344
22824,341
20472,343
20648,343
20968,345
3040,346
20792,346
20992,345
20592,344
20560,344
20888,346
20496,346
20760,343
20512,346
20528,342
20640,343
20928,343
20952,346
21096,343
21136,342
20616,341
20616,344
20512,343
20536,346
20776,342
20784,344
20864,343
21440,345
20544,344
20760,344
20664,341
20968,343
30144,343
20576,343
20544,342
20480,345
20664,344
20896,345
20472,343
20984,343
20896,345
20896,346
21360,344
20616,343
20792,343
20976,343
20984,345
20792,346
3200,345
20608,345
20520,343
20424,344
20720,342
20952,344
20768,340
20904,341
20768,340
21200,342
20856,340
20872,342
20720,341
21016,344
21320,342
21160,342
20640,340
23544,342
3520,343
20448,343
20408,344
20536,344
4448,344
20528,343
20656,342
20792,342
20824,341
23792,341
20752,342
20408,341
21360,343
21664,340
20816,342
20800,339
20920,341
20648,339
21008,339
20632,340
20704,345
20848,343
20616,343
20576,342
20720,345
20464,344
20296,345
20624,344
20744,347
20552,344
20568,345
20776,345
21008,344
20848,344
20464,343
20688,343
20496,344
20592,345
20568,345
21112,346
20592,343
20832,344
20640,343
20872,344
20992,342
24168,343
21112,344
20472,341
20648,346
21000,346
20880,346
20656,347
20952,348
21040,346
20968,345
20672,341
21112,341
23504,339
20672,336
20832,337
21128,334
21376,333
20400,329
20416,331
21848,328
20744,331
20896,328
20464,328
20752,327
21096,328
20992,323
20640,325
20544,324
20808,327
21104,322
20968,325
21096,326
20920,326
21136,324
20720,326
20752,325
20872,327
21144,325
22632,327
20560,331
20568,328
20648,328
20688,324
20416,325
20792,326
20544,328
21168,327
20488,329
20592,333
20792,336
20752,340
20744,337
20616,338
20624,335
20560,339
20792,342
20720,363
22864,363
21864,359
20640,361
20720,356
20912,357
20608,355
5024,356
20560,354
20872,356
20816,356
21296,364
20520,361
20776,373
20480,371
20664,371
20544,374
20472,371
20512,369
20488,363
20848,361
20984,362
20600,361
20624,361
20672,364
20968,357
21072,356
20640,358
21064,351
21744,353
20632,348
20568,353
20912,349
20984,348
20616,345
20464,345
20576,347
20896,350
20528,348
23344,349
21000,348
20792,353
20720,364
20568,368
20424,363
20552,359
20632,357
8896,355
20616,363
20888,358
20872,360
20608,357
20784,363
20840,356
20568,360
20448,358
20400,361
22328,357
20784,361
20536,356
20688,363
20912,366
20688,367
20968,364
20768,371
20584,377
21328,379
20912,378
20704,379
20528,376
20808,381
20840,376
21072,377
21200,376
23040,374
21192,377
20920,379
20792,383
20624,382
6064,385
21072,387
20568,387
20512,384
21104,389
20600,387
20536,394
20752,394
20824,393
20592,392
20696,388
20608,387
21272,387
21200,384
20768,385
20552,390
20424,392
20704,387
20648,386
20688,382
20696,379
20568,380
20704,383
21000,382
20792,381
20792,383
20816,388
20640,385
20648,382
20784,383
20832,386
20520,388
4376,387
20440,386
21824,389
21192,386
20624,388
5192,385
21640,383
20728,382
20848,383
21192,379
20720,385
20880,388
21192,389
20848,386
20792,383
20920,384
20800,384
21120,382
20520,381
20592,382
20616,382
20592,385
20560,388
20624,387
20520,386
20544,384
20456,389
20600,386
20544,388
20800,388
21368,390
21032,388
20920,394
20944,394
20456,393
21656,388
20872,389
23808,399
21296,397
20736,392
20848,396
20944,401
20944,398
20608,398
20488,394
20488,397
21480,396
20776,397
20696,393
20648,394
20704,390
20688,391
20360,406
20792,412
20488,432
20440,432
20648,464
20824,469
20448,489
20608,515
20768,500
20904,481
20584,466
20632,451
20768,454
20928,460
20776,464
21224,457
21000,456
20704,455
21152,450
21032,434
20624,423
20648,417
20896,415
20464,417
20616,410
20616,406
20600,399
20496,400
20808,407
20656,401
20992,393
21400,403
20688,402
20544,397
20560,393
20552,394
20608,423
20624,437
20408,428
20848,421
21040,421
20768,417
20528,416
20752,442
21056,445
21544,440
20704,434
20992,434
21120,432
20992,424
20720,427
20752,424
20800,426
22936,430
20720,433
20536,429
20576,431
20616,436
20640,461
22376,470
20776,497
20808,568
20568,579
22984,622
21048,639
20608,617
20568,638
20712,648
20720,638
20408,633
20912,688
20680,798
20904,800
20760,895
3368,882
20496,898
20664,953
21968,869
20696,778
20768,758
20776,674
20696,621
20712,607
20720,572
21128,530
20496,508
20920,482
20592,466
20696,445
21024,431
20624,450
20544,448
20736,465
20800,497
21200,474
20720,469
20472,475
20656,466
20784,462
20736,462
20424,456
20664,454
20664,454
20584,448
20448,461
20456,454
20600,451
20992,446
21232,446
20736,449
20504,456
20728,467
20496,488
20544,500
22272,495
20544,513
20712,580
20760,590
21104,595
21208,652
20520,629
20512,751
20872,830
20568,822
20920,801
20792,806
20624,812
20416,911
20400,873
20552,866
20624,886
20648,825
20768,776
20912,711
20712,647
20584,604
20584,555
20448,525
21272,497
20720,485
21136,487
20744,472
20672,460
5576,457
20672,444
20640,443
20568,451
21824,455
20712,475
20880,472
20520,495
20576,475
20600,508
20712,494
20696,493
20768,474
20888,470
20880,458
20760,455
20864,451
20640,446
20656,448
21760,443
20744,450
20520,448
20664,450
21104,475
20816,489
20592,563
20480,556
20816,596
20640,576
20592,570
20544,573
20448,602
20792,606
20808,588
20928,624
21072,715
20840,839
20808,871
20984,932
3272,922
20520,946
20880,951
20896,884
20544,917
20568,858
20776,869
20928,818
21048,720
20672,758
20632,701
20856,640
21672,587
20768,554
21240,513
20600,507
20720,484
20496,475
20704,459
20560,454
20640,450
21048,446
20744,451
20576,458
20440,455
20632,450
20704,449
20792,451
20552,444
20584,440
6528,437
20392,437
20872,437
20552,439
20600,435
20720,440
20552,453
20696,448
20512,452
20872,464
20752,470
20896,475
20584,472
20512,483
20808,482
20544,488
20760,498
20912,515
20600,518
20992,540
22952,542
21248,526
20520,620
20832,677
21392,666
21176,664
20664,650
20520,730
20544,732
20752,812
20880,857
20952,903
20592,855
20408,787
20624,761
2648,762
20536,685
20840,614
20448,564
22384,525
20816,500
21016,474
21000,456
20568,448
20744,442
20640,429
20640,418
21200,423
3040,425
20520,428
20568,436
20544,446
20624,445
21104,460
21200,447
20808,444
24168,473
20520,475
20696,462
20992,457
20952,451
20520,444
20768,442
20648,455
20792,447
21024,453
20576,445
20672,447
20792,448
21120,448
2896,445
20432,445
20496,450
20440,453
20472,447
20736,442
20928,443
20952,447
20776,444
20888,446
20584,441
20856,442
21952,438
20408,444
20552,447
20992,447
20848,441
20944,436
20624,438
20912,436
20656,442
20736,441
20992,452
20880,454
20672,450
20448,450
20432,480
20768,574
21088,629
20792,614
20600,579
20984,559
21224,529
21000,510
20632,503
20800,492
20856,501
20696,537
22992,548
20768,582
20616,572
20928,579
21312,543
21248,574
20392,606
20920,569
20576,567
20496,545
20880,514
22264,500
20752,503
22120,467
20960,461
20832,439
20992,465
21064,494
20632,463
20416,457
20672,446
20520,422
20448,410
21304,405
20528,400
20648,395
20472,395
20552,400
20576,398
20680,392
20720,392
20696,412
20624,410
20592,419
20480,429
20768,429
20768,420
20584,423
20560,445
20464,447
20896,444
21040,447
20424,455
20840,454
20400,447
20648,443
20648,446
20616,443
20536,445
20816,440
20688,441
21192,444
20688,449
20936,451
22496,451
20544,456
20760,455
21328,474
20392,486
20616,496
20616,518
20568,522
20464,525
21304,558
20816,552
20472,552
20552,528
20568,507
6304,512
20832,549
20736,554
20736,562
20768,556
20640,608
20680,566
21856,575
20984,562
20720,532
20944,513
21800,579
20624,597
20968,574
21992,551
21016,521
21248,524
21192,501
20664,554
20696,528
20968,496
20992,474
21064,452
20456,431
20496,414
20384,408
20576,397
20768,390
21008,401
20592,399
20696,398
20824,396
21136,395
21120,391
20704,397
20784,391
20648,394
20728,399
20624,414
20480,407
20520,409
21896,412
20672,421
20968,414
20832,415
20688,414
20712,420
20920,418
20720,422
20768,420
20816,421
20856,420
21144,435
20640,437
20440,439
20896,443
20656,440
20792,442
20912,448
21056,461
20832,483
20496,493
20560,496
20640,486
20704,485
20760,475
20768,478
22608,473
20592,469
20536,465
20592,458
20664,453
20544,450
20544,456
4440,456
20408,451
20568,453
20976,452
20696,449
20592,449
23968,448
21032,442
20480,442
20336,441
20480,442
20312,445
20744,458
20536,452
20392,447
20568,444
20936,448
20536,443
20728,441
20968,445
20680,452
20648,449
20640,453
21016,449
20472,449
20432,444
20544,437
20560,434
20856,430
20656,425
20840,421
23968,420
20440,419
20448,414
20512,415
20544,417
20696,420
20624,418
21696,420
20512,419
27152,412
20608,413
21016,414
21680,412
20536,414
20672,415
20496,420
20784,418
20776,418
21136,419
20592,427
20416,427
20544,433
20576,432
20768,431
20824,430
20712,422
20896,425
21144,422
20872,431
21016,428
20704,431
20640,426
20512,428
20864,429
20816,432
20304,435
20504,444
20880,434
20648,430
20632,432
20552,431
20392,441
20400,438
20568,443
20624,440
20488,440
20568,443
20616,451
20568,454
20712,461
20664,463
20544,465
20544,475
20584,484
20520,483
20896,490
20944,492
20728,501
20744,508
20896,518
20840,519
22768,526
20672,526
20568,545
20392,549
20936,550
20632,550
20624,562
20680,564
20768,569
20768,566
20616,579
20472,581
20792,590
3352,587
20808,600
20744,602
20776,607
20968,612
20816,625
21224,629
21960,638
20816,645
20632,658
20536,660
20368,679
20624,683
2800,685
20640,696
20856,703
21384,710
20456,718
20600,732
20592,742
20544,756
20800,759
22744,773
20624,782
20736,788
20824,799
20920,808
20792,818
20896,821
21040,833
20744,840
20824,859
20864,860
20520,869
22416,874
20976,883
20840,882
21000,885
20896,893
21216,900
20760,901
4000,906
20528,899
20392,908
21352,908
20400,911
20840,906
21304,908
20736,901
24808,903
20736,908
20816,899
20616,903
21328,898
20696,904
20640,893
20672,895
20568,885
20640,887
20424,884
20544,887
21040,880
21344,876
20576,875
20480,878
20544,868
20840,870
20736,857
20624,863
20688,861
20432,860
20464,855
20600,852
20544,851
20808,844
20560,840
20616,838
21664,841
20896,834
20840,833
20720,833
21024,835
20944,832
20760,826
20472,828
20752,832
21000,829
20368,825
20424,817
20496,819
20712,806
20656,809
20888,803
2008,807
20424,802
20688,799
20832,792
20944,788
20456,784
20688,777
20704,772
20800,765
20864,761
20520,751
20624,745
20560,735
20456,730
20728,719
20768,712
20792,698
20864,693
20544,678
20760,675
20408,661
20512,657
20712,643
20456,638
20520,626
20800,618
20928,606
20664,598
20568,581
20688,572
20584,560
20728,544
21536,535
20872,520
20576,510
20384,499
20728,488
20480,479
20544,474
20464,466
20552,459
20504,451
20576,452
21216,446
20744,444
20696,434
20592,436
20896,427
20872,424
21296,415
20896,411
20856,402
20552,400
20432,391
20496,387
22984,380
20504,376
20776,368
20664,364
20608,362
20872,358
20968,355
20920,353
20784,349
20904,348
20600,348
20608,351
20968,348
20944,350
20672,348
20864,355
20896,353
20680,356
21568,356
22160,355
20616,359
20632,357
22768,364
21592,361
20752,365
20648,366
20976,371
20944,371
20824,374
23184,379
20560,379
20472,384
20600,383
20496,388
20728,390
20608,392
20696,393
20792,394
22224,395
20936,401
20784,399
20792,403
20512,402
20664,403
20776,402
20568,402
20576,402
20520,400
20536,400
20664,401
20808,404
20656,402
20704,400
20424,399
20600,402
20480,400
20592,402
20600,400
20640,402
21040,398
20632,402
20472,401
20672,402
20896,398
20848,398
20512,397
20744,400
20768,397
20616,396
20640,394
20544,396
20792,394
20688,395
20848,395
20768,396
20640,396
20472,393
20728,396
20544,394
20632,395
20656,392
20440,394
20496,393
20424,396
20552,392
20408,394
20704,394
20560,399
20488,397
2944,398
22544,395
20488,399
20872,399
20920,396
20472,396
20680,399
20480,399
20648,400
20472,402
20960,399
20472,400
21456,402
20472,403
20632,400
20448,403
22704,402
20736,400
20848,403
20808,400
20832,401
20464,402
20544,404
5984,403
20448,403
20544,401
20656,404
21024,402
20624,401
20480,399
22880,402
20544,399
20544,401
20728,398
20808,400
21704,399
20352,400
20408,398
20592,402
20632,401
20576,404
20768,402
20728,406
4752,403
20536,403
20368,402
20544,405
20544,406
20536,409
20416,409
21912,404
20784,403
21144,403
20448,399
20592,404
5328,401
20496,401
20704,398
20576,403
3288,404
20680,404
21032,401
20784,403
20368,402
20504,406
21272,404
21104,405
22888,404
20776,405
20496,401
20432,402
21496,401
20840,403
20776,401
20712,404
20464,403
20792,405
20984,402
20896,404
20792,402
20568,402
20864,400
20856,405
20792,400
20672,402
24872,403
20736,402
20624,403
20728,399
20736,401
20864,400
20704,403
20416,399
20744,400
20792,400
20392,398
20584,397
3456,397
22808,397
20664,398
20424,392
20624,395
20968,396
20528,397
21912,394
21968,398
24552,398
20672,395
20456,397
20664,393
20792,398
20704,394
20872,396
20992,394
20584,396
20664,391
20696,394
21000,393
20784,392
20672,388
20712,393
21256,392
20792,394
21240,391
20816,396
20672,393
21168,395
20520,391
20800,396
20672,394
20736,401
21032,395
21200,400
21072,399
20912,402
20944,397
20952,402
20768,399
20536,401
20504,400
20688,402
20544,398
20648,399
20544,395
20528,397
20520,396
20768,398
21072,394
20872,393
20664,395
20688,398
21008,396
20520,398
20416,397
20640,396
20464,395
20464,397
20704,399
20552,396
20544,396
20424,395
20832,399
20504,392
20672,395
20472,393
21160,396
20496,394
20600,396
20368,394
20488,395
20520,396
20992,395
20568,394
20568,396
20720,398
20688,398
20904,399
20992,397
20672,398
20888,397
22352,395
20936,397
20920,393
21288,395
20440,391
20416,394
20576,392
21256,396
21320,394
20800,400
20856,396
20664,397
20816,397
20680,400
20880,398
20968,400
20424,396
20528,401
20640,400
21168,401
20888,395
20552,399
20704,397
20904,400
20680,398
20840,399
20936,399
20560,405
20944,404
21112,405
20600,403
20896,405
20568,402
22416,404
20488,402
20632,405
20976,404
20680,403
20904,399
20672,403
20432,400
20824,405
20592,402
20872,404
20496,400
20680,399
20560,398
2544,398
20736,399
20840,398
3384,399
22920,399
20576,397
20624,399
20832,403
20632,403
20464,402
20576,400
20640,403
22368,402
20912,400
2344,400
20600,400
20576,398
22136,400
21336,399
21800,397
20336,398
20944,399
20696,402
20744,399
22304,404
20480,400
20496,402
20568,402
21320,400
20624,398
20784,400
20832,396
20608,399
20976,396
20560,399
20488,397
20920,399
21032,398
20704,401
24696,399
20504,397
20488,399
20808,400
21232,402
20776,399
20792,399
20600,398
20568,402
20720,400
21096,399
20928,400
20840,399
20816,397
20760,398
21200,398
20512,400
20640,398
21912,402
20696,399
20488,399
20616,400
20584,400
20648,400
20520,399
20648,397
20856,399
20776,402
20560,400
20536,398
21280,396
21688,396
20672,397
20480,396
20464,397
20480,397
20560,397
20712,397
20544,394
20968,398
20536,395
20864,398
20912,395
22648,397
20552,396
20432,397
20424,395
20648,397
20744,395
20920,393
20504,392
20464,393
20712,394
20944,395
20496,393
20824,397
20496,394
20328,395
20424,393
20544,397
20592,393
21728,394
21104,391
20496,395
20424,393
20888,394
21488,389
23344,392
20768,393
7040,395
20552,394
20584,390
21424,393
20608,390
20456,389
21072,387
22808,386
20824,388
22656,388
20664,389
20368,383
20528,388
20656,386
20592,388
20648,388
20712,391
20528,388
20568,390
20792,389
20488,395
20496,394
20552,394
20424,392
20768,392
20552,393
20512,392
20880,393
20576,391
20432,393
20384,391
20416,391
20672,389
20752,392
20600,391
20688,392
20816,392
21000,393
20544,390
20432,393
20840,393
21064,392
20680,390
21200,393
20448,390
21512,394
20400,391
20816,395
20704,394
20712,396
20672,396
20616,395
21280,393
20920,394
20672,395
20888,397
20880,393
22096,399
20904,395
20664,398
21016,395
20744,398
20944,397
20728,396
20992,393
20824,396
20432,395
20624,394
21136,391
20480,393
22224,393
20816,395
20648,392
20448,394
20520,392
20544,397
20456,396
20512,399
20744,397
20648,398
21248,393
20704,397
21016,397
20880,398
20816,395
20784,398
21080,396
20944,398
20712,392
20664,395
20744,392
20496,393
20496,394
21960,395
20704,393
20744,395
20576,393
20592,399
20664,395
20752,396
20616,394
20752,396
20792,393
20432,397
21024,393
20768,395
20400,396
4120,397
20872,396
20544,396
20744,397
20568,396
25080,395
20728,398
20648,397
20376,396
20792,396
20896,396
20976,394
20784,397
20576,394
20720,396
20600,395
20920,398
20696,395
20672,399
20592,392
20608,394
20608,390
20584,397
20448,394
20568,397
20672,394
20656,397
20800,395
20384,395
20472,394
20472,398
20656,398
20720,398
21152,396
3056,395
22656,396
20504,397
20568,395
20496,392
20880,395
20872,395
21344,393
21184,394
20824,393
20760,393
20728,391
20792,394
21200,393
20416,399
20608,396
20744,400
20856,399
20872,398
21296,394
20896,396
20784,395
25544,393
20752,394
20736,393
20624,396
20472,394
20504,394
20872,393
21144,395
20872,394
20424,395
20728,394
21072,394
20368,390
20472,393
20592,392
20440,394
20560,395
20576,391
20480,392
20528,391
20496,393
20392,390
20600,393
20624,392
20392,394
20792,392
21176,393
22384,390
20928,393
20872,392
22720,391
20808,393
20672,395
20528,397
21984,394
21128,397
20808,393
23344,395
22488,395
20832,392
20624,395
20504,393
20784,394
20496,396
20856,394
20920,393
20856,397
20800,395
20944,393
20520,392
20544,394
20448,393
20640,394
20448,393
21320,393
20984,394
21072,394
20488,393
20528,394
20856,392
20840,390
21016,394
20776,394
20672,391
20672,393
20760,392
20808,393
20864,395
21128,393
21096,392
20672,392
20784,394
20744,396
20872,397
20968,396
20896,395
21024,398
20840,394
20616,394
20480,394
20664,396
23136,394
20688,395
20872,393
20640,397
20640,394
20480,397
20624,394
20672,398
20648,395
20496,397
20688,396
20760,399
21040,397
20536,396
20792,399
21000,398
21064,400
20832,401
20640,401
20632,402
21264,398
20976,399
20640,402
20680,401
20568,401
20720,399
21768,396
20744,400
20896,397
20488,397
20720,395
21272,398
20952,396
3360,397
20688,397
21032,401
21120,398
20496,399
20504,397
20520,398
20440,396
20400,394
20816,395
20824,396
20536,398
20456,396
20752,398
20840,394
20496,397
20656,393
20752,398
20936,394
20872,396
21072,393
21000,399
20928,396
20568,397
3944,396
20496,395
20504,391
21016,398
20472,398
20656,398
20480,397
20616,399
20504,400
20840,399
20800,399
20616,401
21296,399
20928,400
20736,397
20688,398
20744,396
20520,397
20584,397
21000,396
20504,397
24248,398
20624,397
20768,398
22304,394
20552,396
21120,397
20416,393
20752,393
20672,395
20568,394
20696,395
22536,396
20936,394
20528,398
20456,396
23680,396
20824,395
21008,397
20912,397
20464,400
22088,399
21080,397
8456,398
20416,397
20448,397
20960,397
20592,397
21264,395
20520,398
20456,397
20880,398
21064,397
21128,397
21192,399
22776,395
20560,399
20840,396
21472,396
20512,395
20592,397
20368,394
20440,396
20624,393
21464,396
20496,392
21792,396
21104,392
20664,393
20872,392
21000,394
20424,395
20648,398
20592,393
20504,394
20760,391
20624,398
20512,393
20600,396
20712,394
20792,395
20920,393
20472,396
20392,395
20624,397
20456,395
20512,395
20560,395
20920,397
20808,397
21160,399
20800,398
20464,396
20680,398
20504,394
20640,395
20544,393
20600,396
20632,392
20656,394
20624,394
20568,397
20616,394
20584,395
21240,392
20768,394
20408,392
20600,395
20464,392
20400,395
20880,393
20928,395
20544,395
20536,394
20568,395
20560,394
20648,397
20560,393
21248,398
20816,394
20544,395
20512,392
20744,396
21384,394
21112,393
21152,393
21016,392
20672,391
20544,393
20424,391
20688,392
20888,393
20816,394
20760,393
21096,393
20536,392
20632,394
20496,391
20960,393
20864,391
20544,392
20656,391
20696,392
21872,391
20480,391
20424,391
20472,394
20752,391
20720,394
20448,392
21624,396
20952,392
20952,396
20536,392
20696,395
21176,391
20608,393
20496,393
20592,395
20568,394
21040,392
20968,391
20648,393
20568,391
20496,395
20480,395
20688,395
20576,393
20432,394
24752,395
5096,395
20312,397
20584,395
20752,394
20872,392
21096,393
20744,394
20840,393
20864,393
20984,395
20792,394
20920,394
6000,393
20648,394
20752,392
20672,395
20712,391
20704,394
20496,394
20488,400
21920,394
20576,395
20480,393
20616,395
20464,392
25184,392
20744,394
20984,392
20792,395
20416,392
20528,395
20512,391
20544,393
22632,393
20624,395
20792,393
20584,394
20664,391
20880,397
21328,394
20776,396
20536,392
20728,398
20672,396
3600,397
20616,395
21024,395
20824,394
20640,395
21000,395
20872,397
20944,396
20600,397
21200,394
20496,398
20792,395
7120,395
20560,399
20744,398
21024,396
20648,397
20536,396
20448,399
20720,395
20816,396
20760,394
21224,397
20744,396
20608,396
26592,397
20672,397
20696,394
20568,396
20552,396
20560,392
20480,395
20464,393
20832,394
20832,391
20744,393
20840,391
20584,396
20384,392
20424,396
22432,394
20640,397
20632,397
20488,400
20616,397
20544,398
20720,393
20480,396
20640,393
20568,396
20840,395
20528,395
20552,394
20464,395
20832,396
20440,396
23344,393
21472,397
20832,395
20944,395
20368,395
6888,395
20648,395
2608,395
20408,395
20824,397
20576,396
20496,398
20736,398
20696,400
20496,396
20632,396
21584,394
20632,399
20536,396
20632,397
20768,396
20600,401
20568,400
20568,402
21536,397
20720,401
20472,396
20408,401
20720,398
20520,400
22272,398
20576,403
20872,399
20880,401
21416,398
21088,401
21688,400
23200,398
20520,399
6544,399
20440,400
21688,397
20480,394
20536,395
20560,397
20632,397
20544,397
20472,395
22304,394
26784,392
25288,395
23936,394
24024,398
20696,401
20384,402
26808,403
20616,407
24336,412
20360,413
21200,417
20336,418
20408,422
4264,423
20416,427
21000,429
20440,433
20456,437
20536,439
20408,445
20504,449
20488,455
20416,456
20496,459
20632,459
20504,462
20688,461
20912,466
20368,465
20328,469
20672,471
20408,470
20800,473
20368,475
20472,479
20816,480
20496,486
20616,486
21544,491
20344,491
20560,498
20784,499
20880,505
20536,506
20592,512
37544,514
21552,519
21152,521
20480,525
20416,524
21992,531
20680,529
20728,531
19784,527
24456,531
20520,536
20568,531
23984,531
20928,529
20472,523
20864,521
20392,518
20544,515
20840,514
20808,509
20768,510
24856,507
20720,507
20752,510
20616,508
20616,505
20768,500
20480,501
20712,498
20664,498
20496,498
20584,501
20568,496
20448,495
20744,493
20528,492
20552,492
20736,492
20568,486
20592,484
20472,484
20608,481
20648,480
20440,474
20584,472
21000,464
21472,462
21448,456
23128,450
20528,449
20616,442
20616,444
20776,438
20616,440
20704,435
20600,436
24120,431
20488,431
20512,430
22128,431
20560,429
20488,428
20768,424
20704,421
21048,419
21048,505
21144,483
21952,464
21096,447
21800,432
20448,424
20720,412
20440,405
20528,396
20528,395
2592,395
20440,387
21304,385
22408,385
22792,381
20512,387
20512,382
21888,380
21128,379
20424,378
21200,375
20568,373
20728,370
20864,366
20344,364
23056,358
20560,357
20432,354
21576,358
20552,356
20584,361
20736,361
20472,369
20696,411
21000,402
20792,394
3696,393
20792,380
21040,368
20768,354
20504,359
20544,362
20720,355
20584,340
20568,330
20608,322
20640,318
20416,315
20352,312
20528,320
20632,309
20520,302
21136,294
20656,292
20728,285
20544,282
20416,277
20648,274
20744,272
20576,272
20552,271
20536,269
20488,268
20512,265
20680,265
20648,263
22464,266
21672,272
20584,269
20680,272
20432,276
20600,283
22424,284
20592,290
20552,293
20624,297
20560,303
20992,310
20504,312
20344,316
20376,317
20640,320
20552,327
20656,327
20616,327
21696,327
20672,335
20496,338
25152,334
20352,337
20576,342
23816,344
20560,343
20560,338
20504,339
20488,339
20416,334
20336,337
20496,331
20560,328
20552,326
20672,322
20480,612
20824,639
20536,576
21744,545
20472,605
20496,570
20520,457
20560,321
20632,371
20744,295
20560,167
20528,0
20440,97
21824,188
20656,307
20984,308
20504,477
20616,460
21664,388
20480,311
20464,459
20648,490
20592,485
20872,356
20368,495
20736,535
21040,541
20544,422
20672,534
20640,551
20568,543
20648,506
20496,521
20544,530
21144,512
20496,477
20768,504
20776,487
20664,185
20552,197
20616,212
21200,351
20488,432
20912,386
21800,298
22056,280
21848,289
20672,295
20632,334
20672,371
20560,437
20696,480
20496,575
20616,645
20440,587
20640,847
20512,831
20440,775
21720,695
20864,629
20624,635
20536,658
20776,664
20968,666
21928,713
22400,768
20736,714
20800,763
20536,760
20920,775
20920,769
20624,758
20648,765
20368,763
20408,760
21136,755
20872,761
20648,764
20592,762
20808,757
21344,767
20544,766
20824,761
21392,753
20456,760
20600,761
2064,759
20440,749
20560,750
20496,752
20576,754
20904,743
20816,740
20904,748
20528,748
21976,740
20568,741
20912,746
20608,745
20568,737
20392,736
21008,740
20648,740
20792,733
20568,732
20488,737
20504,737
20520,732
20672,724
20544,731
20944,732
20392,727
20472,717
20672,712
21008,706
21416,701
20552,692
20792,696
21656,697
20872,692
20424,680
20624,687
2912,687
20480,680
20616,664
20456,661
21016,670
20808,669
20688,661
20968,659
20480,667
21616,665
20872,657
20576,661
20496,667
20616,662
20600,656
20512,651
20928,661
20848,660
20880,651
20696,646
20464,655
20480,655
20536,654
20552,642
20696,653
20872,651
20640,647
22368,639
21240,647
20816,648
21160,639
20976,640
24376,645
20512,637
20448,633
20496,642
20688,641
20824,640
20736,630
20856,640
20608,641
20952,640
20872,633
20824,644
20992,645
21032,641
20632,637
20760,644
20592,641
20712,638
20472,625
20648,635
20792,635
21168,627
20352,614
20576,620
6736,623
20384,615
20352,617
20744,627
20968,634
20416,630
20520,623
20736,630
20608,624
20680,617
20440,610
20608,614
20552,609
20848,604
20712,598
4072,602
20520,598
20824,600
9760,604
20568,603
21384,603
21976,595
24520,613
4560,610
20536,615
20544,634
20456,640
20512,647
20536,644
20656,651
20872,651
20768,649
20688,641
20552,643
21024,632
20520,623
20424,611
20528,615
20472,622
21824,623
20424,612
20584,615
20424,618
22176,621
21360,611
20712,617
23608,614
20456,604
20424,604
21456,610
22752,606
20720,599
21392,601
21048,604
20704,602
20536,599
20568,603
20464,607
20392,605
20424,597
20432,598
20480,603
20544,604
21768,597
20544,598
20584,595
20424,616
20600,618
20392,612
20400,590
20480,592
20448,595
20480,589
20408,590
20376,589
20400,590
20640,586
20368,589
20368,596
20712,597
20496,591
4120,591
20360,595
20608,596
20496,591
3280,585
22688,590
20488,589
20448,584
20432,579
20384,586
20400,588
20624,585
20632,579
20472,584
24680,586
23256,580
20376,585
22240,586
20496,580
20744,576
20392,582
23720,580
21168,573
20360,580
21304,582
20720,579
20600,572
20560,578
20688,580
20744,579
20656,571
20448,576
20448,577
22056,575
23216,571
21808,577
20736,575
20760,566
20520,570
21336,575
4616,575
20368,566
20576,570
20512,571
20592,572
20424,565
20792,567
21776,570
20936,568
20624,564
20616,566
20392,569
20528,570
20808,561
20392,562
20520,566
20920,567
5392,560
20472,562
22744,567
20616,564
21000,557
21272,562
20600,564
20376,563
20944,556
21056,561
20664,562
20416,560
20632,555
3056,558
20472,561
20696,561
21248,553
20488,555
20448,559
20472,558
20464,555
20568,552
1992,555
20392,557
20552,557
20552,551
20408,550
20728,556
20984,556
20920,549
21096,551
21952,554
21872,554
20928,547
20472,552
20784,553
21032,552
20464,544
20424,550
21776,552
20784,547
20488,543
20488,548
20592,551
23432,545
20784,545
20640,549
20640,549
20568,543
20456,540
20432,546
20448,548
24328,540
20992,545
21944,547
22000,540
20384,539
22016,544
21992,543
20496,537
20416,540
20696,543
20688,543
20720,535
20648,539
20944,542
25408,534
20880,539
20744,542
20960,539
20528,533
20552,536
20800,540
20744,540
20800,530
20416,533
20528,537
20480,537
20688,534
2440,530
22600,536
20544,538
20544,532
20616,529
20640,535
20744,538
22904,527
21024,531
20488,534
20552,535
20584,527
20456,527
20608,531
20696,534
20896,528
20576,526
20760,530
20616,531
20920,528
23240,527
20552,530
20648,530
20648,523
20400,525
23008,531
20616,528
20632,523
20544,527
20344,528
20720,527
20976,520
20552,525
20600,529
20752,526
21328,518
20512,523
20296,526
20576,526
20640,520
21328,520
20472,523
21800,525
20768,516
20768,521
22048,525
20472,522
20600,516
4768,522
21328,524
20616,521
20992,515
20584,519
20592,522
20768,519
20608,514
20896,520
21000,521
21536,517
21352,513
20696,517
21824,519
20752,511
20496,513
20544,518
23952,516
22288,511
20480,517
20840,517
20640,511
20592,509
20872,514
20920,517
20968,511
20760,508
20512,511
20624,513
20696,511
20368,506
20432,513
20600,514
20528,513
20672,505
21152,511
20720,513
20440,511
20520,504
20752,508
20880,509
20608,510
20648,504
20768,508
20536,510
20520,508
20656,502
20472,504
20352,507
20552,509
20720,506
20648,501
20984,506
20536,507
20640,506
20784,500
20520,505
20648,506
20432,504
20824,498
21312,504
20824,506
20536,504
20584,496
20664,502
20832,504
20744,504
23776,500
20736,502
20656,502
20896,497
20360,495
20456,502
20656,503
24136,493
20800,502
20840,502
20720,499
20608,493
20616,501
20496,500
20488,501
20840,492
20440,495
20552,500
20576,497
20680,492
21544,495
21096,496
20464,497
20528,492
20600,493
23696,498
20552,496
20808,490
21032,496
20504,496
5688,492
20656,489
20528,495
21056,496
20496,490
20936,491
20768,494
20768,494
20912,488
20584,487
23016,493
20672,492
20896,487
20784,492
20624,492
20568,492
20320,484
20472,487
20736,492
20760,493
20640,486
20528,484
20736,489
20872,491
20568,487
20664,484
20624,490
20552,489
20344,487
20880,481
20912,489
20632,490
20720,486
20744,481
20488,486
20440,487
20480,489
20656,482
3488,484
20800,488
20784,486
20984,479
21120,482
24352,486
20848,481
21168,481
20688,484
20736,484
20648,480
20800,481
20592,484
20736,484
20832,478
20688,478
20624,484
20776,486
20912,479
20712,475
20760,483
20752,485
22904,474
21072,481
20832,482
20608,482
20640,473
20856,478
20680,482
20584,482
20592,475
20632,476
20696,480
8672,474
20616,476
20760,480
3968,480
20488,476
20616,474
20800,478
22128,479
20640,471
21000,475
20688,477
20704,479
21152,472
20592,475
20520,477
20848,477
20960,471
20696,474
20800,478
20616,477
20440,470
20616,470
20592,475
20568,476
20728,473
21400,470
22128,476
20528,474
20728,467
20704,471
21320,474
20896,473
20640,466
20496,470
20768,472
20768,473
20480,468
20432,467
20472,473
20744,472
20824,467
20520,464
20896,473
20736,471
20776,469
21064,463
20672,470
22696,470
20592,464
20576,467
20608,471
20520,470
20640,466
20632,463
20664,469
20856,468
20680,464
20712,463
20648,469
20760,469
20848,465
20744,463
20576,467
20520,468
20704,467
21312,461
20648,467
20768,470
20976,465
20752,458
20640,466
20696,467
20480,466
20736,459
20424,465
20712,465
20952,465
21016,459
20568,466
20672,465
20888,465
20768,458
20440,460
20728,466
22984,459
20688,457
4720,464
20600,465
22448,457
20584,460
22016,462
20544,463
20792,455
20952,462
20792,464
20672,461
20568,455
20800,458
2160,460
20512,463
20552,459
20768,453
20736,461
20424,464
20392,462
23424,456
20968,461
20440,459
20840,455
21048,456
20568,460
20776,459
22344,453
22256,457
20464,459
20448,458
20792,453
20736,459
20672,460
20504,458
20776,451
21032,457
20632,458
20632,459
20640,451
20864,455
20976,457
20896,457
21256,449
20688,456
5240,456
20712,456
20688,449
20568,457
20776,457
20944,455
20992,449
20808,456
20520,455
20864,453
20592,448
21056,455
20672,455
20696,453
20712,448
20712,452
20672,455
20672,453
20680,447
20856,452
20872,453
20896,453
21112,447
20600,451
20696,453
20752,451
20520,445
20592,450
20552,452
20616,452
20488,446
20680,445
20504,451
20792,450
20872,446
20640,446
20544,449
20376,451
20496,449
20496,443
20800,450
20688,451
20640,450
20520,441
20672,448
20760,450
20776,449
21200,442
20992,448
20776,448
20608,447
20568,442
20768,445
20528,448
20432,449
20720,440
20888,444
20784,448
20664,447
20616,440
20840,442
21304,448
20864,446
20632,440
20856,441
20800,446
24624,440
20616,443
20816,447
21184,445
20800,440
21288,443
20920,445
20920,442
20816,437
21080,444
20400,446
20808,444
20784,436
21072,442
20600,443
20576,444
20696,438
20680,439
20680,442
20616,444
21512,437
20672,439
23624,445
22152,436
20528,439
20560,443
20944,442
20744,436
23864,441
20736,440
21016,439
21472,435
20632,441
20448,441
20728,437
20704,435
20792,442
21992,440
20944,435
20864,435
20672,441
20720,440
20592,434
20792,435
20672,441
20992,440
20440,435
20760,432
20872,437
20776,440
20872,435
20616,432
20472,437
20400,439
20648,435
20904,431
20544,438
20640,439
20712,436
20976,431
20496,436
20664,440
3664,437
20344,431
20496,434
20776,437
21056,435
20464,431
20448,431
20664,437
20424,437
20544,434
20672,429
20648,435
20736,435
20872,434
20728,430
20584,435
20880,436
20856,432
20992,428
20872,435
21568,435
21184,430
21008,429
21024,434
20968,435
21064,428
20848,430
20920,432
20632,434
20824,427
20480,429
20536,434
20480,434
20512,429
20608,427
20776,430
20624,434
21064,429
20624,427
20552,431
20320,432
20400,432
20768,425
20600,430
20792,432
20424,431
20336,426
20824,428
21176,432
20744,430
20512,425
20400,425
20496,431
20608,430
20760,425
20968,425
20480,430
20488,431
20752,425
20680,422
20768,429
20744,430
27224,426
22048,431
20552,427
21624,423
21544,429
20744,430
20688,424
20568,421
20488,429
20392,430
20616,427
20440,422
20432,424
21368,429
20592,428
20672,421
20552,426
20696,428
6744,425
20440,421
20544,427
20432,428
20744,426
20824,420
20880,427
20496,428
20640,425
20680,419
20560,424
20400,425
20336,426
20648,420
20488,421
20656,426
20776,424
20632,420
20592,419
20704,426
20568,426
20512,424
20568,418
20512,424
20560,425
20816,424
2952,417
20464,420
20360,424
21008,423
20752,417
20640,418
20808,423
20784,424
20744,418
20744,418
20552,423
20488,423
20488,419
20416,415
20760,423
20704,423
20704,422
20744,415
20520,420
20848,423
20504,421
20384,415
23176,421
20488,422
20744,418
20632,414
20816,420
20832,421
22192,415
21424,417
21552,421
20648,421
23000,415
20888,419
20720,421
20848,415
21144,414
20736,420
20848,421
20616,415
20880,413
21192,418
20856,421
20792,413
20832,413
20768,419
20424,419
20344,416
20496,412
20520,420
20616,419
20888,416
20816,411
21000,419
20824,419
20616,416
20400,409
20448,415
20648,419
5472,416
20480,409
20536,416
20720,417
20696,417
21248,411
24264,417
20616,416
20480,409
20504,411
21592,418
20800,415
20792,409
20576,413
20576,414
20504,416
20728,410
20816,412
20608,414
20536,415
22832,409
20984,414
20696,416
20744,414
20912,407
20768,414
20600,415
20520,413
20512,407
20792,412
20976,415
20600,413
20640,407
20728,410
20640,415
20528,414
23392,407
21112,414
21072,414
20608,409
22528,410
20968,414
20664,412
20944,406
21296,412
21032,411
20760,412
22272,406
20424,412
20816,414
20920,409
20376,404
20552,412
20864,413
20568,412
20664,403
20568,409
20928,412
20976,411
20792,403
20640,409
20576,410
20744,410
21016,404
20456,408
20440,410
20680,410
20784,403
20528,405
20800,410
20792,412
20744,404
20736,404
21208,410
20760,409
20552,404
20664,403
20640,409
20464,410
20688,405
21784,404
20608,407
20776,409
20480,403
20584,401
21296,409
20576,408
20552,404
20760,401
20712,408
20432,409
20528,407
20568,400
20624,406
20664,409
20888,406
22184,400
21704,408
20408,408
20456,404
20472,400
20680,405
20568,408
20600,404
20712,400
20640,406
20736,407
20960,405
20720,399
20904,406
20744,408
20712,407
21000,398
20496,403
20792,407
21792,403
20496,398
20736,404
20808,406
20368,404
20648,398
20672,402
21024,406
21048,403
20640,397
20920,404
20744,405
20544,404
20704,396
21072,402
20592,405
20512,404
20696,397
20520,400
20648,404
20488,404
20640,398
21008,398
20648,403
20744,403
20760,397
21032,398
21328,403
20680,402
20624,397
3264,396
21352,402
20920,402
20672,398
20768,395
20616,401
20640,403
20424,400
20768,396
20888,400
20464,403
20464,399
20496,395
20760,401
20552,401
20616,400
20472,394
20872,398
20912,401
20880,401
20664,394
20560,397
20592,401
21024,400
20624,393
20328,396
23184,401
20696,400
20816,393
20704,401
21432,401
20536,398
20848,393
20760,400
22640,400
20880,393
20568,395
21160,399
20992,399
20432,393
20472,394
20568,400
20816,400
20992,393
20904,394
20632,398
20576,400
20616,395
20600,390
20792,397
20896,399
20816,394
20680,391
20472,397
20776,399
21112,395
20816,391
20712,397
20496,398
20728,395
23304,393
22128,399
21064,395
20832,389
20624,396
20744,396
20472,397
20664,390
20816,395
20688,396
20568,395
20768,388
20848,395
21792,397
20464,394
20592,387
20448,393
20424,397
20672,395
20696,389
21032,390
20480,395
20552,395
20568,391
20592,388
20368,395
20752,396
20624,392
24232,394
20480,395
20776,394
20696,388
20392,392
20640,396
20744,393
20672,386
21448,392
20736,394
20768,393
20512,387
20792,390
20928,393
20600,394
20752,386
21048,390
22904,393
20672,389
20592,386
3272,391
20792,394
21424,392
21152,386
20744,392
20840,394
21120,390
20528,386
20536,393
20464,393
20584,391
20472,384
23072,391
20624,393
20624,388
20888,385
20616,391
20480,392
20472,390
20616,383
20576,391
24480,391
20704,384
20920,388
20768,391
20608,389
20520,384
20544,387
3840,392
20472,390
20728,386
20664,384
23416,392
20744,389
20528,383
20880,389
20584,392
20792,389
20512,383
20448,386
20800,389
20896,390
20544,383
20680,386
20752,389
20752,389
21352,382
20688,386
21296,390
20792,387
20856,382
20928,387
20736,390
20928,387
20720,381
21112,388
20776,390
20640,388
20624,380
23216,388
20552,389
20432,385
20744,380
20952,386
21760,388
20736,382
20512,380
20736,387
20616,389
20440,385
20488,380
20472,387
20600,387
20880,385
20512,381
20648,387
20944,387
20848,385
20888,378
20712,385
20528,387
20984,385
20576,381
20520,382
20696,386
20552,386
20336,380
20488,380
20792,385
21008,386
20472,380
20784,380
20944,386
21768,384
20880,379
20496,379
20624,384
20848,386
20696,379
21128,379
20960,385
20704,385
20720,378
20808,379
20808,385
20680,385
20864,379
20840,378
20776,384
21280,385
20848,378
20368,379
20752,383
20856,382
20688,378
20848,378
20736,383
20688,384
20752,377
20992,378
20488,384
20520,383
20712,380
20704,375
20880,382
21048,385
20744,380
21096,375
20728,381
20672,383
20528,380
20496,376
20720,382
21216,382
20800,380
20704,377
6840,383
23384,376
20960,375
20944,382
20768,383
20736,375
20848,376
20992,381
20544,381
20480,377
20520,374
20640,382
21080,381
20840,377
20704,375
20648,381
20424,382
20704,379
20800,373
20440,381
20752,382
20616,380
20784,373
20800,378
22408,382
20568,377
20504,372
20720,379
20744,381
20872,379
20816,374
21144,378
20688,381
20880,378
20744,373
21048,378
5072,380
22760,371
20888,377
20560,379
20640,379
20576,372
20776,377
20744,380
20840,378
20584,372
20608,375
20864,379
20616,378
20856,372
20880,374
20944,378
20560,378
20808,372
20568,371
20496,377
20648,378
20600,375
20424,371
20560,378
20872,378
20744,377
20504,370
20752,378
20808,379
20696,376
20416,370
20584,375
20472,377
20592,377
20592,370
20912,373
20568,378
20672,376
20504,370
20464,370
20672,376
20632,377
20848,372
20712,369
20392,376
20544,377
20472,375
20704,369
20768,375
20424,377
20472,376
20568,368
20744,373
20848,377
21264,375
21024,368
20840,375
20736,377
20872,375
20472,367
20704,373
20600,376
21120,374
5840,368
20624,375
20552,375
20512,374
20568,367
20720,374
21064,375
20496,374
20896,366
20632,374
23304,374
20552,368
20784,370
20768,373
20528,373
20840,369
21328,368
20832,374
20632,374
20592,368
20624,366
20808,373
20496,373
20464,372
20696,367
20496,371
20376,373
20432,372
20384,365
20728,370
21072,372
21184,373
20536,364
20584,370
20520,373
20416,372
20720,367
20920,368
20744,371
20872,371
20656,367
20920,368
21168,372
20976,372
20776,366
20736,367
20872,372
20640,372
20536,365
20328,365
20640,372
20736,372
20608,367
20696,364
20720,370
20728,371
20592,370
20424,364
20704,371
22856,371
20608,365
20680,365
20392,370
20480,371
20616,367
20568,364
20600,371
20792,372
20832,369
20656,363
20920,370
21288,372
21544,364
20424,362
20568,368
20776,371
20984,367
20992,362
20680,368
20448,371
20640,368
20712,364
20720,369
20896,370
20488,367
20552,363
20744,367
20840,369
20816,368
21712,362
21048,369
20656,370
20848,366
20680,360
20544,368
20840,370
21040,366
20520,361
21000,367
20584,369
20824,368
21184,361
20816,368
20584,368
20824,368
21104,361
20920,367
21600,369
20704,365
20760,361
20592,367
20608,368
20976,366
20760,360
20544,367
20736,368
20432,365
20864,360
20624,365
20696,368
20544,366
20800,361
20552,364
20680,367
21048,367
20560,360
20616,364
21224,366
20840,366
20504,360
20632,363
20592,367
20712,366
20824,360
20784,360
3120,365
20496,365
20672,364
20416,359
20528,366
20568,367
20944,364
20848,358
21008,365
20720,367
20840,364
20848,357
20856,365
20696,366
20720,365
20320,358
20408,363
20800,365
23272,360
20408,357
20744,363
20728,367
20664,362
20560,358
20712,364
20880,366
20904,363
20928,358
20528,364
20648,366
20712,363
20744,357
21264,364
20656,366
20576,363
20432,356
20648,361
20592,363
20472,363
20704,357
20816,361
20536,363
20520,363
20656,357
20432,357
20496,363
20448,364
3568,362
20624,355
20776,363
21048,364
20656,361
20600,356
20792,363
20960,364
20896,361
20808,355
20712,363
20552,363
20536,363
20520,355
20528,359
22368,363
20664,361
20688,355
20624,361
20480,362
20464,360
20480,355
20736,359
20896,362
20608,360
20496,354
6872,362
24232,359
21592,355
20440,360
20736,363
20808,359
20808,354
20472,359
20600,362
20544,361
20720,354
20840,359
20568,361
20496,360
20360,353
20408,356
20544,360
20720,362
21008,354
21128,355
20456,361
20480,361
20768,355
20480,354
20440,359
20624,359
20968,356
20944,353
20640,360
20560,361
22568,355
20696,355
20624,359
2888,361
20560,359
20736,352
22248,359
20688,360
20784,355
20744,352
20792,359
20536,361
22512,352
20472,355
20592,358
20600,361
20344,355
20712,353
20384,358
20528,359
20944,356
20704,352
20648,359
20784,360
20728,357
20480,352
20424,357
20688,358
23400,353
20600,352
20464,358
20688,360
20448,356
20672,351
20848,357
20552,359
20928,355
20816,351
4560,357
20696,359
21056,354
20832,352
20848,357
20672,357
20712,353
20400,349
20464,357
20624,359
22936,351
20848,351
20912,357
20664,357
20696,351
20616,351
20520,356
21672,357
22408,350
20520,355
20824,358
20792,356
20848,349
20720,353
21472,357
20400,357
23648,352
20624,355
20896,356
20688,350
20728,351
20728,356
20840,357
20896,349
20528,350
20496,354
20488,356
7544,349
20520,355
20752,357
20648,355
20592,348
20496,354
20464,354
20400,354
20840,349
20616,351
20864,354
20648,355
20992,348
22640,354
20560,355
20904,353
20656,348
20800,354
20744,355
20832,353
20992,348
20880,354
20688,355
20648,353
20512,347
6208,355
20456,356
20520,353
20632,348
20640,354
20824,354
20856,353
20768,348
20656,353
20704,354
21224,352
20600,348
20656,353
20528,354
20640,353
20592,346
20960,352
20968,355
20768,352
20840,347
21064,352
20368,354
20720,353
20576,347
20544,350
20544,352
20536,353
20712,347
20704,348
4008,353
20640,353
20920,347
20592,346
20872,352
20496,354
20480,350
20416,347
20520,352
20544,353
20680,351
20432,345
21320,353
20528,353
20752,351
20600,345
21992,352
20728,353
20992,350
20488,344
20456,351
20744,353
20688,351
20528,345
20664,350
20568,351
20560,351
20640,346
20504,347
20696,353
21024,351
20968,344
20608,347
20432,351
20448,352
23576,345
20512,350
20536,353
20520,351
20560,344
20744,347
20544,351
20504,351
20544,345
20584,346
20776,350
20744,350
20744,345
20480,344
20584,351
20824,351
20648,346
20672,343
20648,349
21744,351
21216,343
20696,345
20536,350
20656,352
22896,343
21144,350
23720,351
20840,343
20920,346
20640,349
20720,350
21456,343
20616,347
20600,349
20648,349
4216,343
20640,345
20840,349
20520,351
20664,342
20768,344
20792,348
20472,350
20504,346
20480,343
20472,349
20560,350
20536,348
20416,342
20920,348
20968,350
21096,347
21184,341
20712,348
20744,350
20512,348
20480,343
20456,346
20520,348
20792,347
20680,342
20448,345
20640,349
20656,348
21368,341
20920,346
20912,349
20512,348
20704,340
20768,343
20744,347
20792,348
20800,342
20408,341
20560,347
20472,346
20936,341
20896,342
20944,346
20952,347
20544,342
20696,340
20832,348
20440,348
20352,346
20528,339
20720,345
20640,347
20632,346
20552,340
20696,345
20736,346
20472,346
23576,340
20784,346
20888,346
20624,342
20872,340
20592,345
20720,346
20568,343
20680,340
20672,345
20488,347
20592,344
20728,338
20904,346
20728,346
20880,345
20640,338
20920,345
20592,346
20760,345
21384,339
20472,344
24320,344
20816,338
20712,343
20496,346
20656,346
20816,338
20840,342
21096,345
20800,345
20656,339
20472,341
20496,343
20856,344
21312,339
20776,341
20736,345
20496,344
20568,339
20608,339
20784,345
20472,347
20824,340
20456,337
20576,343
20728,345
21024,341
20744,338
20888,343
20720,344
21080,341
21088,338
20424,343
20544,345
22152,338
20568,339
20568,343
20648,345
20552,340
20744,337
21008,345
20992,344
20864,339
20752,338
20896,344
20816,344
20560,340
20432,336
20800,342
20616,344
20560,343
20648,336
20744,343
20552,344
20568,341
20528,336
20808,341
20704,343
20568,342
20744,336
22120,341
21472,344
20712,340
20688,336
20528,341
20440,343
20672,342
20632,336
20712,340
20672,342
20824,342
20704,336
20896,340
21176,342
2600,343
20792,336
20584,336
20600,341
20752,343
20832,338
20832,336
20816,341
20896,342
22960,335
20712,340
20536,342
20808,341
20776,336
20856,339
21040,341
20696,341
20552,335
20560,338
20648,341
20664,341
21040,335
21160,339
20360,342
20712,341
20656,335
22344,341
20536,342
20584,340
20544,334
20608,337
20368,341
20448,341
20776,336
21464,337
21296,341
20880,341
20520,335
20456,336
23128,342
20560,340
20480,333
20360,339
20320,341
20464,340
20608,334
20480,335
20472,341
23176,339
20800,334
20768,340
20720,340
20840,338
20512,333
20456,338
20776,341
20832,338
20456,332
20504,336
20736,339
20808,340
21688,332
20472,336
20760,339
20744,339
20920,333
21040,337
20728,338
20960,339
20752,332
20568,336
20360,340
2992,340
20384,337
20880,332
21496,338
20768,339
20720,334
21048,333
20744,338
24568,334
20888,333
20416,339
20720,339
20792,335
20568,332
20496,338
20728,339
20776,337
20760,332
21000,338
20792,339
20848,336
22800,333
21168,338
21120,338
20848,331
20616,334
20544,338
20416,337
20680,333
20968,333
20696,338
20744,338
21136,332
20832,333
20896,337
20856,338
20736,331
20480,331
20752,338
20944,338
20840,332
20536,331
20584,337
20592,339
20552,335
20352,331
20648,338
20608,337
20672,336
20448,328
20800,336
20616,337
20696,337
20520,330
4240,334
20664,336
20528,336
20448,331
20352,331
20760,336
20784,336
22136,330
21792,335
21288,336
21592,333
20872,330
22448,337
21952,335
22840,330
22328,336
21416,336
21688,328
20600,335
27304,329
23000,336
21584,336
22576,329
22696,335
20560,338
20344,335
20432,329
20744,334
20896,336
20672,335
20992,329
20872,334
20616,336
20848,334
20584,328
20616,334
20896,335
20648,335
20568,328
20552,330
20496,335
20648,336
20896,331
20600,330
21648,335
20872,335
20784,329
20640,330
20840,334
20952,335
20648,329
20984,331
20672,335
21904,334
20856,328
23896,335
20688,333
20800,328
20640,329
20544,333
20560,334
20688,330
20720,328
20768,333
20664,335
20432,330
20592,328
20680,334
20808,335
20864,332
20496,327
20664,332
20768,335
20704,333
21640,327
20992,333
20784,335
20816,330
20832,327
21136,333
20560,335
20416,332
20688,326
20832,333
20720,334
20752,332
20824,327
21096,333
20896,335
20928,331
3648,326
20656,333
20720,333
20456,332
21048,326
20472,331
20456,333
20592,332
20744,327
20544,330
20448,333
20944,333
20864,325
20688,328
20440,334
20912,333
20448,327
20632,326
20448,332
21360,333
20544,328
20672,326
20696,331
20600,333
20608,329
20384,326
20448,332
20656,333
20640,331
20488,326
20688,329
20872,333
20896,331
22408,325
20568,331
20728,333
20912,330
21064,325
21144,332
20640,333
20416,331
21184,324
23696,332
20432,330
20488,324
20872,328
20568,331
20464,331
6192,324
20592,330
20576,332
20512,331
20616,324
20880,329
20920,332
20840,330
20480,324
20720,329
20848,332
20664,330
20856,323
21120,329
20520,332
20760,332
20568,324
20752,327
20824,331
20816,330
20712,324
20832,325
20576,330
20400,330
20800,325
20712,325
20600,329
21608,330
20824,323
20760,326
20896,330
20856,330
6224,324
20680,331
21096,330
20696,329
20688,323
20488,329
20488,331
21864,328
20848,323
20592,330
20592,331
20560,329
20744,323
20816,329
20592,330
20480,330
22328,323
20624,329
20512,331
2416,330
20416,323
20544,324
21088,330
21032,329
20424,323
21544,326
20592,330
20448,329
20736,323
20568,324
20792,328
20816,328
22072,322
3288,325
20824,329
20800,328
20664,322
20648,323
20792,329
20472,330
20736,325
21008,322
20792,329
20496,329
20776,325
20816,322
20712,327
20624,329
20456,326
20616,322
20792,329
20720,329
20768,326
20856,321
20480,327
20752,330
20640,328
20648,321
20552,324
20824,328
20800,328
20760,320
20456,324
20792,328
20784,328
20688,321
20552,324
20624,328
20792,328
20712,321
20648,322
21144,328
20768,327
20936,322
20544,322
20392,327
20664,328
20744,324
6648,327
20408,328
20744,326
20744,321
20824,325
21088,327
20768,326
20720,319
20624,325
21208,328
20456,327
20520,321
20480,323
20536,327
20696,328
4344,321
20392,321
20712,326
20584,328
21208,322
20656,320
20936,326
20784,326
20800,320
22160,324
20704,327
21064,325
20800,319
20712,324
20768,327
20512,327
23952,320
20656,326
20456,327
20472,324
20616,320
20656,325
20720,327
20448,324
20528,319
22016,326
20632,327
22056,320
20776,321
20696,326
22064,325
20680,319
20648,322
20984,327
20600,326
22648,319
20928,325
20832,326
20712,324
20648,318
20640,326
20664,327
20592,325
20784,319
21064,325
21360,327
22576,319
20816,320
20728,326
20560,326
20464,321
3592,319
20536,325
20576,326
20592,323
20872,319
20968,325
20416,326
20624,323
20616,317
20792,323
20672,326
21352,324
20616,318
20616,323
20416,325
20768,324
21192,318
20720,323
21224,326
20456,324
20496,318
20496,321
20704,324
20672,325
20816,318
20568,320
20520,325
20568,325
20640,320
20656,317
20832,324
20872,326
20784,321
20696,318
20640,324
20488,325
20696,323
20872,317
20560,324
20792,325
20592,323
20560,317
20800,322
20776,326
20936,322
20912,317
20544,322
20800,325
20680,323
20880,317
20648,322
4088,324
20896,323
20768,316
20728,322
20880,325
20792,322
20592,316
20776,322
20696,325
21520,323
21280,316
20520,323
20720,324
22888,318
20624,317
20664,323
20816,325
20920,318
21400,319
20496,323
20576,325
20712,319
20352,315
20624,322
20968,325
20760,321
20664,317
21032,322
21072,323
20704,320
20856,317
22728,323
20584,323
20672,317
21408,320
23304,323
20896,318
20840,315
20888,322
20848,323
20792,317
20624,315
20536,321
20568,325
20640,320
20720,316
20664,322
20400,323
20496,321
20712,315
20680,321
21240,324
20984,320
20560,315
20584,321
20816,324
21288,321
20680,315
20552,320
20432,322
20800,322
20512,316
23192,322
20456,323
22096,315
20544,316
20816,322
22304,320
20736,314
20624,319
20592,322
20568,322
20648,315
3968,317
20400,321
20840,322
20384,316
20648,315
20600,321
20792,322
20576,319
20816,313
20496,321
20544,322
20688,320
20800,314
20824,321
20728,321
20728,320
20744,314
20728,321
20584,322
20744,320
20760,312
20832,319
20864,322
20512,321
20472,314
21880,320
20648,322
20496,321
20416,314
20552,317
24424,321
20696,313
20904,315
20760,321
20592,321
20520,315
20656,314
20424,319
20488,322
20496,320
20472,314
20504,320
20448,320
20864,320
20744,313
20624,317
20472,321
20624,320
20592,313
20848,315
20648,319
20464,319
20704,315
3280,314
20440,319
20424,321
20776,319
20352,313
20464,317
20496,320
20680,319
5640,313
20472,319
20664,320
20512,319
20792,312
20856,318
20600,321
20704,319
20872,312
21024,318
20856,321
20584,319
20848,312
20960,317
20624,320
20920,319
21080,311
20400,317
20736,319
20736,318
20648,313
20720,316
20616,319
20776,319
21024,311
20552,315
20600,318
20944,320
20712,313
23576,318
20776,319
21056,315
21008,313
20664,318
20648,319
20664,315
20792,311
20600,318
20768,320
20568,318
20448,311
20520,316
20768,319
21088,318
21168,311
20440,316
20776,319
4024,318
20496,310
20352,316
20488,319
20360,319
20800,313
21808,316
20616,319
20720,318
20824,312
20464,314
20600,317
20680,318
20664,312
20984,314
20608,317
20776,318
21112,312
20440,313
20496,318
20448,318
20640,315
21192,311
20784,317
21304,319
20664,313
20984,312
20832,316
20840,319
20696,313
20816,311
20616,316
20512,318
20592,315
20872,310
20968,317
21136,318
20544,313
20760,311
20920,316
20768,319
20720,313
20912,310
20912,317
20512,319
20576,316
20880,311
20848,315
20976,317
20848,314
20824,310
20664,316
20496,318
20616,315
20584,310
20704,316
20808,318
20872,315
20856,309
20448,315
20704,318
20672,317
20576,308
20784,313
20664,317
20536,317
20592,311
20680,313
20784,317
21488,316
20624,310
20360,312
20640,317
20760,316
21048,309
21128,313
20712,316
20664,317
20696,310
20600,310
20616,316
20696,317
20832,310
20824,310
22464,316
20624,315
20664,310
20360,312
20560,315
20664,316
20624,311
20816,311
20592,316
20552,316
20424,312
20680,308
20472,314
20464,317
20688,315
20728,309
20688,314
20696,316
20704,315
20864,309
20976,315
20816,316
21160,313
20760,309
20728,315
20544,316
20512,315
20448,307
20824,312
20512,316
20448,315
20472,310
20664,310
20672,315
20896,314
20600,310
20776,310
20720,315
20904,315
20560,310
20568,308
20632,314
20936,317
20848,310
20544,308
20712,313
20520,316
20512,314
20624,308
20848,314
20424,315
20728,314
20648,308
20832,313
20584,316
20704,315
20992,307
20736,311
20656,316
20720,315
20448,308
20672,311
20752,314
5824,315
20640,307
20416,313
20840,314
20664,314
20600,306
20600,311
20456,314
20768,315
20736,308
20736,309
20648,314
20440,314
20808,310
20608,308
20672,314
20536,315
20696,311
20568,307
20512,315
20592,315
20624,313
20536,306
20528,312
20864,314
20824,314
20984,308
20768,312
20432,314
20704,313
20760,307
20576,311
20696,313
20880,313
20648,307
20544,308
20368,313
20336,315
20800,309
20640,306
20760,312
20568,315
4992,309
20624,306
20688,313
20848,314
22792,307
22296,312
20448,315
20576,313
20616,307
20544,312
20624,313
20824,312
20488,306
20448,311
20664,313
22176,311
21168,306
20824,313
20832,313
20512,312
20752,305
20608,313
20712,314
20616,312
20624,306
20472,309
20656,312
20448,313
20648,308
20872,309
23480,314
20320,311
20736,306
20848,312
20896,314
20488,312
20744,306
20792,311
22664,313
20704,308
20872,306
20712,312
20904,313
20592,308
20552,305
20568,312
20496,313
20432,310
20464,304
20568,311
20944,313
20704,311
20624,305
20600,309
20560,312
20568,311
20504,305
20568,308
20640,312
20648,313
20672,306
20872,306
20752,311
20696,313
20880,307
20888,305
20600,311
20672,313
21208,306
20728,306
20912,311
20544,312
20624,307
20672,306
21800,311
20704,311
20744,306
20408,305
20640,311
20648,312
21016,306
20744,305
20904,311
20784,313
20960,306
22504,309
21176,310
20968,310
20656,304
20520,311
20512,311
20512,312
20720,304
20664,306
20592,310
20704,312
21072,306
21088,306
22096,312
20976,310
20568,304
20472,308
20824,311
20344,310
20472,305
20560,306
20568,311
20384,312
4512,305
20520,304
20512,310
20448,312
21312,307
21048,304
21040,310
21560,311
20864,304
20856,307
20520,310
20648,311
20488,305
20768,305
20760,310
20816,310
20616,306
20600,304
20744,311
21488,310
20928,305
20888,304
20640,311
21144,310
20560,305
20552,304
20568,309
20792,312
20616,307
20456,304
20704,310
20808,311
20448,308
20936,303
20600,310
20632,311
20776,309
20760,303
21424,310
20528,311
20664,309
20616,303
20320,307
20344,309
20472,309
20880,304
20712,306
20680,310
20496,309
20568,303
21152,306
20384,310
21728,309
20496,303
20624,304
20800,309
20648,310
20520,305
20784,303
20712,309
20856,310
21184,304
23784,309
22024,309
20496,304
20296,302
20480,309
20584,309
20808,308
20504,302
20616,308
22784,309
20872,302
20792,304
20800,308
20816,310
5448,303
21344,307
20560,310
20536,309
20496,303
20600,305
20848,308
20872,309
20840,303
20640,305
20584,309
20624,308
20720,303
20904,304
20464,309
20872,309
20856,303
20920,303
20696,309
21048,309
21080,302
20688,303
20496,308
20928,309
20752,304
20768,303
20544,307
20672,309
20976,304
20472,303
20984,308
20544,309
20528,306
20800,302
20608,308
20616,310
20856,307
21112,301
20624,307
21192,309
21240,304
20816,302
20584,307
20768,309
20528,307
20496,301
20512,308
20496,309
20632,307
20544,301
20568,306
20568,308
20936,308
20640,301
20568,304
20592,307
20576,308
20688,302
20504,301
20536,308
20552,308
20584,305
20632,301
20496,307
20696,308
20608,307
20616,301
20368,305
22256,308
20480,306
20528,301
20656,307
20392,308
20528,306
20424,300
20984,305
21080,308
20912,306
20664,300
20696,305
20408,308
20504,308
20616,302
20640,302
20544,307
20456,307
20720,303
20688,300
20488,306
20736,308
20624,305
21168,301
20776,306
20704,308
20840,304
21064,299
20512,306
20640,307
20448,306
20512,301
20896,305
20736,307
20456,306
20808,300
20568,305
20472,307
20776,306
20648,300
20520,302
20816,307
20768,308
20688,300
20568,302
20872,306
20672,306
20992,301
21008,302
20648,306
20688,306
20584,301
20832,301
21104,306
20712,306
20968,301
20544,301
20760,307
20576,307
20672,303
20480,299
20568,306
20640,307
20960,305
20520,300
20560,306
20880,306
20728,305
20712,299
20592,306
20600,308
20472,305
21600,299
20800,305
20592,306
20472,305
20568,298
20872,304
20848,306
20480,306
20408,299
20744,302
20640,304
20952,305
20920,300
20632,301
22800,306
20840,305
20480,299
5624,306
20656,306
20544,303
20896,299
20520,306
20360,307
20520,304
20576,299
20392,303
20520,304
20552,306
20480,299
20816,302
20736,304
20912,306
20568,299
21544,302
22176,306
20776,304
20632,299
20744,304
2816,305
20512,305
20816,299
20920,301
20688,304
3184,306
20496,301
20416,298
20880,304
20824,307
20752,303
20880,298
21296,304
20608,307
20560,303
20704,297
21488,305
20552,305
20360,304
20608,299
20744,304
20696,304
20728,303
20680,298
21272,304
20864,305
20664,303
20944,297
20800,304
20544,305
20792,303
20456,296
20728,303
5624,305
20448,303
20528,298
20624,303
20472,305
20648,304
20544,297
20696,301
20680,304
20744,303
20824,297
20880,302
20704,305
4136,304
20496,298
20528,298
20488,303
20592,303
20824,299
20904,299
20792,303
20776,303
20672,299
3744,298
20592,303
20568,305
20752,303
20632,299
20696,303
21296,305
20456,302
6128,299
20520,303
20336,304
20608,299
20792,298
20672,303
20680,304
20792,300
21024,297
21248,304
21704,303
20376,297
20760,299
20352,303
20656,305
20504,299
20568,297
20544,302
20400,305
20704,302
21000,296
20928,304
20744,303
20720,301
21072,296
20896,304
20576,304
20648,302
20992,296
21472,303
20696,305
2816,303
21968,297
20664,302
21008,304
20696,303
20856,297
20792,302
20656,304
20792,302
5096,297
20640,303
20672,304
3816,302
20696,295
20952,302
20584,304
20424,303
20536,296
20512,300
20768,303
20928,303
20472,296
20752,300
20552,303
20432,303
20776,296
20824,297
20768,303
20896,303
20520,296
20792,297
20528,302
20584,303
20792,299
20784,296
20568,302
20448,303
20648,300
20936,295
20720,303
21008,303
20680,300
20720,295
20560,302
20656,303
20912,300
20744,295
20912,302
20648,303
20832,301
20904,295
20912,301
21176,303
20392,300
20520,296
20432,300
20576,304
20408,302
20760,295
22400,302
20848,302
20824,299
20856,295
20600,302
20744,302
20592,301
23272,297
20800,302
20384,302
20792,297
20728,296
20624,302
20536,304
20808,299
20816,295
20576,300
20664,303
21176,299
20408,295
20952,301
21024,303
20712,300
20592,296
20536,302
20416,302
20432,300
20480,294
20496,298
20560,302
20584,301
20752,296
20808,297
20960,301
20904,302
20448,295
20856,297
20952,301
23328,299
20472,294
20648,301
20448,301
20736,301
20872,295
20704,298
20840,301
20864,300
20488,295
21520,302
20600,301
20456,299
21104,294
20544,300
20616,302
20872,302
20800,294
21520,301
21216,303
20472,300
20624,294
20872,299
21952,303
20752,297
20648,293
20840,300
21216,302
20728,298
20872,294
21440,301
21096,300
20456,296
20472,293
20824,300
20736,301
20640,297
20688,295
20648,300
20720,302
22528,295
23224,300
20624,302
20528,301
20424,293
3544,299
20384,301
4064,301
20432,295
22096,298
20848,301
20984,300
20624,293
20416,296
20448,300
20672,300
20600,295
20584,296
20496,300
20752,301
20840,294
20736,294
20752,301
20440,302
20416,297
20472,293
20552,298
20712,301
20856,299
20816,294
21368,300
22048,301
20976,294
21024,295
20600,299
20880,301
20872,296
20944,295
21224,300
20920,299
20600,295
20696,295
20728,300
20616,300
20968,295
20712,296
20880,300
20920,299
20816,293
20584,294
20848,300
21088,299
20872,293
6040,300
20632,301
20592,299
20896,292
24824,300
20424,299
20584,293
23696,299
20944,300
20744,295
21472,295
20776,299
20744,300
20456,294
20648,293
20488,298
20328,300
23304,292
20704,296
20520,300
20752,300
21088,293
20624,295
20872,300
20640,300
20816,293
20640,296
20624,299
20720,299
20800,293
20688,294
20960,300
21000,298
20688,293
20504,294
20752,300
21032,299
20672,292
20480,292
20592,299
20536,300
20496,297
20768,292
20624,299
20728,299
20768,297
20368,292
2384,294
20416,299
20616,299
20624,294
20728,292
20760,299
22000,299
24152,292
20752,298
20776,300
20800,294
20808,292
20720,298
20472,300
20480,297
20496,292
20656,299
20696,299
20696,297
20640,291
20736,297
21512,300
20552,297
20696,291
20656,297
20696,300
20632,299
22896,292
20672,298
5672,298
20448,292
20424,293
22088,299
20496,298
5144,291
20440,296
20456,300
20496,299
20592,293
20760,294
20600,298
21688,298
20576,291
20632,294
20648,297
20520,298
21520,292
20824,295
20384,298
20720,298
22896,292
20728,297
20600,298
20672,296
20616,291
20584,297
20432,299
20624,298
20608,290
20504,293
20760,297
20648,297
20648,292
20848,293
20696,297
20480,299
20464,294
20800,292
20648,298
20744,299
20664,295
21320,290
21000,298
20792,299
20896,293
20744,291
20744,296
20448,299
20808,296
20856,290
20656,296
20896,299
20576,297
21152,291
20592,297
20536,298
20704,296
21224,291
20560,297
20544,299
20584,296
20392,290
20688,294
20568,298
20720,297
20544,291
20544,293
20664,297
20776,297
20752,291
20992,292
21712,297
20600,296
20768,291
20504,294
22000,297
20456,297
20496,290
20976,295
20984,297
20720,297
22248,291
22528,297
20800,297
20912,291
20720,292
20976,297
20760,297
20520,291
20672,291
20768,297
20912,297
20848,290
20944,291
20592,297
20856,297
20736,291
20584,290
20792,296
21240,297
20936,291
20480,289
20664,297
20632,297
20872,293
20688,291
20824,296
20728,296
20536,293
20488,290
22344,296
20608,296
20672,292
22704,295
20840,297
20680,296
20536,290
20720,294
20760,295
20848,296
20744,290
20976,293
20568,298
20544,296
20896,290
20520,291
20856,297
20872,297
21024,290
21048,292
20824,297
20512,297
20592,291
20472,291
20552,296
20520,297
20680,293
20504,289
20608,296
21088,298
20744,293
20808,288
20768,296
20600,297
20568,295
20680,288
20944,296
21000,298
20904,295
20464,289
20600,295
20960,297
20880,295
20880,289
20944,295
20624,297
20472,295
20496,288
20480,294
20792,297
20808,296
20592,290
20504,292
20584,295
20632,296
20712,290
20552,290
20568,296
20712,296
22384,289
20552,292
20856,296
21552,295
20904,289
21136,295
23544,296
20528,290
20912,291
20688,296
20496,297
20568,292
20464,289
20728,296
20976,295
20648,293
20728,289
20768,295
20696,297
20568,294
20536,288
20544,294
20856,297
20432,295
22112,288
20896,295
20640,297
20704,294
20576,289
20760,295
20488,296
20416,295
20336,288
20456,292
20464,295
20616,296
20496,291
20584,288
20544,294
20696,295
20696,292
21016,289
21144,294
20672,295
20464,292
20552,289
22624,294
20472,295
4648,289
20656,291
22312,295
20672,294
20720,288
20800,294
21088,295
20592,294
3424,288
20552,291
20928,295
20920,295
20448,289
20464,289
20416,294
20400,295
20688,290
20904,289
25240,296
20648,291
20792,288
20848,294
20776,296
21024,290
20576,287
20664,294
20864,296
20864,291
20584,289
20536,294
21344,295
21120,290
20600,289
20480,294
20504,295
20544,292
20648,287
20544,293
20544,295
20768,294
20856,287
20896,293
20592,294
20536,294
20488,288
20536,291
20600,295
20592,294
20712,288
20808,289
24464,295
21096,289
20824,288
20736,293
20488,295
20592,291
20592,287
20480,294
20672,295
20904,292
20792,287
20808,294
21368,296
20864,290
20440,286
20624,294
21344,296
21120,289
20880,286
20536,293
20392,296
20536,293
20424,287
20488,293
20568,294
20416,294
20560,287
20600,289
20520,294
20792,294
20680,287
20760,288
20752,293
20624,294
20856,289
20440,287
20552,293
20848,295
20824,289
20656,287
21016,294
20472,295
20656,292
20600,286
20520,292
20824,295
20888,292
20752,286
20856,292
21064,295
20528,294
20704,286
20616,291
20488,294
20616,293
20776,287
20552,291
20440,294
20584,295
22352,286
20792,293
20832,294
20584,292
20592,286
20880,291
20568,295
20784,293
20728,287
20696,290
20696,294
20632,294
20536,287
20720,288
20984,293
21408,292
20920,287
20832,291
20864,293
21104,292
20720,286
20768,290
20800,294
20712,293
6280,287
20456,293
20600,294
20520,292
20864,287
20784,293
20480,294
20656,293
20648,286
20864,291
20864,293
20824,293
20456,286
20376,290
20432,293
20624,293
20800,286
20640,288
22112,292
20776,293
21104,285
20832,291
20560,294
20712,291
20688,285
20840,289
20656,294
20704,293
20920,286
20536,289
20584,292
20392,292
20664,288
20760,287
20384,292
20600,294
20784,289
21176,286
20912,292
20872,294
20984,286
20704,286
20656,292
20784,293
20800,289
2856,286
20440,292
20672,294
20720,292
20792,285
20864,290
20456,293
20448,292
20392,287
20584,288
21416,292
20920,293
20792,286
20624,289
20664,292
20832,292
21376,285
22560,291
20504,293
20824,291
20880,285
20736,291
20952,293
21056,291
21384,286
20808,292
20392,292
20752,290
20736,287
20536,293
20472,294
20600,291
4816,285
20696,291
20688,294
20336,291
20712,286
20592,290
20496,292
23120,289
20448,285
20872,291
20848,294
23744,284
20528,290
5272,294
21416,288
20472,285
20592,291
20432,294
20760,291
20792,284
20624,290
21192,293
23272,285
3080,286
20520,290
20696,292
20472,289
20472,286
20568,292
20768,293
20816,290
20896,284
20744,291
20624,293
20816,291
21248,285
20600,291
22976,292
20992,286
20696,287
20504,292
20432,293
20720,288
20712,284
20944,290
20912,293
20496,288
20568,285
20536,291
20632,292
20776,291
20544,284
20664,291
20800,293
22376,287
20752,285
21248,290
20824,292
20944,286
20680,285
20936,290
20808,292
21168,285
20704,286
20840,292
21040,291
20592,286
20744,285
20720,290
21072,292
20848,285
20936,285
20792,289
20712,292
20656,286
20424,285
20560,290
20680,291
20744,288
20592,284
20944,291
20528,292
20752,289
20832,284
20800,290
20968,293
20616,289
20552,284
20704,290
20784,292
20968,290
20480,284
20616,289
20520,291
20552,290
20624,284
20672,287
20568,291
20864,290
20720,284
21080,287
20456,291
20488,291
20680,285
20680,284
21024,290
20632,292
20904,285
20744,284
20696,290
21024,290
20552,286
20840,284
20760,291
21048,292
21128,284
20776,286
20992,291
20784,291
20520,285
20568,284
20912,290
7584,289
20488,285
20688,291
20656,291
20568,289
20544,283
20696,289
20576,291
20528,290
20568,284
20592,287
20640,290
20864,289
20800,284
20744,286
20496,291
20544,290
21040,285
20704,285
20752,291
20576,292
20488,286
20568,283
20616,289
20872,291
20752,288
20616,284
20832,290
20536,291
20816,289
21016,284
20720,290
20648,291
20568,289
22280,284
20808,290
20704,290
21504,284
20824,285
20808,290
20704,290
20904,284
20680,284
21272,290
21744,290
20720,283
21216,288
20816,290
20520,289
20632,283
20848,286
20368,291
20440,290
20480,285
20856,283
20920,290
20632,290
20984,285
21992,286
20488,290
20640,290
20736,284
20848,286
20664,290
20568,289
20656,285
20528,284
20616,289
20776,291
20520,287
20664,283
20544,289
20448,290
22328,285
20768,283
20648,290
20784,291
20760,286
20624,284
20744,289
20848,291
21352,286
20824,284
20440,289
20720,291
21496,284
5048,286
20544,290
20616,290
20632,283
20384,283
20440,288
20752,292
20824,286
21104,283
20880,289
20552,291
21008,286
21296,283
21032,289
20712,290
20744,285
20936,284
20552,289
20696,290
20832,285
20640,284
20912,289
20816,290
20824,284
21040,283
20728,289
20672,290
21064,284
21072,283
20712,289
20472,291
20744,284
21016,283
20720,288
21160,290
20936,284
20528,282
20416,289
20792,290
20912,285
20440,282
20584,288
20544,290
20528,288
20856,282
20952,289
20520,290
20536,288
20544,282
20496,286
20656,289
20968,289
20696,282
20344,285
20400,289
20720,288
20648,284
21384,286
20768,289
3064,290
20792,286
20624,282
20448,288
20504,289
20432,287
20640,281
3496,285
20696,289
21680,288
22648,282
22328,288
20912,289
20592,282
20856,286
20744,288
20640,288
20416,282
20424,283
20816,289
20544,290
20656,285
20368,282
20440,288
20640,289
20544,287
20896,283
4064,289
20472,290
20936,288
20744,282
20968,288
20976,290
20800,288
20432,281
20520,287
6272,290
20368,285
20672,282
20768,287
20592,289
20928,287
20520,282
20528,288
20800,289
20776,287
20864,281
20768,288
20520,290
20864,288
21344,281
20696,288
20880,290
21072,286
20480,281
20816,287
20768,289
20616,288
20512,281
20464,286
22080,289
20696,287
5288,282
20328,287
20792,289
21136,285
20504,281
20712,288
21168,289
21456,283
21016,283
20944,288
20856,288
21016,281
20848,283
20640,288
20872,288
20408,282
20696,282
20720,286
20720,289
20560,285
20560,281
20576,287
20648,288
20680,287
20400,281
20480,287
20648,288
20496,288
21168,281
20784,286
20832,288
20632,287
20664,280
20776,285
22064,289
20744,287
20856,280
20744,287
20816,288
3912,288
20744,280
20768,286
20472,288
20560,287
20696,280
20504,283
20672,288
20744,288
20824,281
20496,282
20616,288
20520,288
20896,282
20720,282
23176,288
20856,287
20832,280
20448,286
20392,288
20600,288
20928,281
20640,284
20960,287
20720,286
20696,281
20768,284
20648,287
20648,287
20832,281
3640,282
20400,286
20480,288
20824,284
20688,281
20752,287
20848,288
20800,284
20840,281
20568,287
20528,288
20664,286
20784,280
20544,286
20392,288
20536,287
20496,281
20576,284
24024,287
20648,281
20696,281
20760,286
20560,288
20744,284
20680,280
20376,287
20664,288
20832,285
20608,281
20544,286
20496,288
21888,285
20480,280
20888,286
20472,287
20672,286
22248,281
20464,287
20496,288
20736,286
20672,280
20496,286
20880,288
20736,286
20512,280
20696,285
22160,288
20720,285
20616,281
20744,286
21008,287
21128,284
21072,280
20512,286
20672,287
23832,278
20488,283
20640,287
20744,286
20848,280
20536,283
20480,287
20680,286
20784,281
20648,282
20720,286
20720,286
21048,280
20632,281
20472,286
20520,288
20840,283
21016,279
20496,285
20488,286
20920,284
20768,280
20904,285
20768,287
20384,284
20672,280
20488,285
20768,287
21168,284
20848,279
20968,286
20736,287
20648,285
20504,279
20672,285
2360,287
20432,287
20552,281
20440,280
20432,285
20504,287
20496,285
20744,279
20704,286
20872,287
20992,284
20768,279
20560,286
20720,287
20744,284
20816,279
20648,284
20792,287
20624,287
20728,280
20816,282
20792,286
20696,286
20952,280
20728,283
20992,286
20600,286
20544,281
20616,282
20720,286
20856,286
21136,279
20736,282
23096,287
21576,281
20936,280
20704,285
20504,286
20808,283
20968,280
20632,285
20632,287
20560,284
22624,282
20576,284
20904,286
20520,279
20848,282
20624,286
20680,286
20760,280
20648,279
20632,286
20760,287
21016,282
21016,279
22376,286
20608,286
4320,279
20408,281
20632,286
20720,286
20520,281
20728,281
20768,285
20464,287
21264,280
22040,283
20952,286
20848,285
20368,279
21840,284
20696,286
20800,283
20744,279
22384,284
21992,286
20984,279
20520,281
20544,285
20592,287
20712,281
21032,280
20672,285
23000,285
21032,279
20632,284
20776,286
20768,285
22728,279
21048,284
20632,286
20728,282
20584,279
20816,284
20936,286
20848,283
21112,279
20616,284
20512,287
20720,283
20832,278
20544,286
20616,286
20792,284
20704,278
20656,285
20648,287
20640,285
21168,279
20736,284
20736,286
20784,285
20656,279
20552,283
20880,286
20728,285
20704,278
20536,283
20400,285
20952,286
20816,278
20664,281
20504,284
20392,286
20944,281
21400,280
20808,285
22392,284
20912,278
20680,283
20504,287
20672,285
22344,278
20704,285
20792,287
20512,284
20744,279
20640,284
20680,287
20480,284
20696,279
20872,284
20720,285
20848,284
20968,278
20448,283
20672,285
20512,285
20728,278
20768,281
20432,284
20576,285
20616,280
20936,280
21448,284
22712,283
21096,278
20648,283
20752,285
20656,284
20912,278
21288,284
20800,286
20440,284
20512,278
20392,283
20448,285
20560,284
20592,278
21008,282
20472,285
20848,284
21648,277
20744,284
21648,286
20872,283
22320,279
20600,285
2760,286
20664,284
20616,278
20448,282
20432,284
20480,284
20688,278
20416,280
20672,284
20672,284
21048,278
20696,279
20840,285
20640,286
20544,280
20424,278
20440,284
20496,284
20664,282
20904,278
21368,283
22096,284
20744,279
20928,280
21104,284
20840,284
21040,278
20568,281
20864,284
20520,284
20592,278
20680,278
20632,284
20624,286
22464,277
20544,281
20632,284
21088,284
21136,277
20776,281
20488,285
20848,284
20944,278
21088,281
20920,285
20672,285
23496,278
21320,284
20824,284
20592,279
20712,279
20840,284
20624,284
20720,279
20680,277
20816,284
20944,284
20856,279
20544,277
20464,283
20712,284
20744,282
20856,278
21000,282
20768,283
20640,281
20816,278
20896,283
20896,285
20704,282
20768,277
20672,283
20856,285
20888,282
20640,277
20744,284
20680,285
22144,280
20688,277
20984,284
20568,285
20656,280
20848,277
21120,282
20680,284
20640,281
20864,278
21112,283
21024,284
20584,279
20736,277
20936,284
20496,284
20576,281
20776,277
20936,284
20432,284
20488,282
20720,275
20920,283
20616,284
20432,282
20448,277
20688,282
20680,283
20880,283
20744,277
20864,281
20896,284
20944,283
20624,276
20776,282
21096,284
20672,283
21648,276
20512,283
20520,284
20568,283
20560,276
20576,279
20688,283
20728,284
20720,277
20688,279
20472,283
20672,283
20776,279
23096,282
20464,283
20600,283
20848,277
21312,282
20848,284
20504,282
20568,277
20848,282
20632,284
20488,283
22960,277
20648,283
21968,284
21032,278
20656,277
20904,283
20568,283
20800,278
22160,281
20696,283
20920,284
20832,277
20424,279
20528,284
20496,284
20616,279
20904,276
21608,284
20816,281
20808,275
20568,276
21656,280
20568,279
20568,273
20424,273
20752,277
20720,278
23776,271
20816,278
20680,280
20448,278
20472,272
20712,277
20888,280
20888,277
20520,271
20720,277
20992,279
20792,277
20824,271
20792,277
21296,278
20680,276
21200,271
20528,278
20392,279
20600,278
21048,271
20784,277
5608,279
20608,275
20656,271
20984,277
20800,279
20736,276
20544,271
20888,277
20912,278
20848,277
20720,272
20688,277
20840,279
20680,277
20696,271
20688,277
20800,278
20904,276
20592,271
20776,277
20656,279
20368,278
20608,271
20848,275
21048,278
22120,278
20608,271
20616,277
20592,278
20464,277
20424,271
20768,276
20528,278
20432,278
20568,272
20864,274
20600,278
20872,278
20664,272
21168,274
20912,279
20744,279
20568,273
20488,272
20544,277
20624,279
20600,275
20640,273
20944,279
20800,279
20360,277
20536,271
20704,277
20728,280
22144,274
20944,271
20992,278
20568,279
20672,274
20520,271
20672,278
20576,279
20912,277
21048,272
20800,278
20760,280
20744,277
20672,272
20672,279
21120,279
20728,277
20560,272
20792,279
20664,281
20856,277
21056,271
20720,278
21008,280
20568,278
20528,271
20808,278
20792,279
20536,277
20400,272
20456,275
20760,279
20712,278
20448,273
20464,274
20544,278
20400,280
5496,272
20640,274
20376,278
20576,279
20840,273
20640,273
20968,278
20960,278
20456,274
20648,273
20648,278
20464,280
20648,277
20720,272
20968,278
20632,280
20648,277
20440,272
21080,278
20704,279
20544,278
20856,272
20504,277
20688,280
20664,278
20520,272
20672,275
20736,279
20872,279
20968,272
20496,275
21488,280
20448,279
20432,273
20472,273
20616,279
21064,279
20880,273
21016,275
20768,278
20720,279
20448,273
20480,273
20784,279
20736,280
20520,275
20680,272
20400,277
20384,279
20672,278
20464,271
20976,279
21256,279
20832,277
20752,273
20448,278
20752,280
20632,278
20696,272
20536,278
20768,279
20800,279
20872,272
20744,276
20768,279
20760,279
20848,272
20776,276
21016,279
20600,279
20512,272
24728,279
20496,279
20520,273
20672,272
23824,279
21000,275
20976,272
20888,279
20888,279
22456,272
20280,274
20552,278
5672,277
20392,272
21664,277
21920,279
21040,275
20672,272
20616,278
20824,279
20664,276
20488,272
20488,278
20688,280
21464,276
20600,271
20624,278
3368,279
20568,278
20944,271
20648,275
20640,278
20544,277
20696,272
22152,277
20840,278
21144,277
22056,272
20552,277
22200,279
21520,271
20672,273
21048,278
20616,278
22688,271
20848,278
20848,279
20776,276
20520,271
20504,277
20496,278
20720,278
20696,271
20568,276
20448,279
20824,277
20856,271
20744,275
20768,279
20944,278
6120,272
20608,278
20592,279
20576,277
20544,271
3120,275
20584,279
20528,277
20816,271
20440,273
20496,278
20616,280
20680,274
20744,271
21096,278
20856,280
20888,273
20696,270
20640,277
20912,279
20760,273
20616,272
20584,278
21104,279
20872,273
20920,271
20984,278
20696,278
20432,275
20920,270
20808,278
20768,279
20632,275
20992,271
20672,277
20536,279
20416,277
20816,271
21144,277
20664,279
20664,278
20496,271
20664,277
20592,278
20552,277
20320,271
20616,274
20720,279
20576,278
20688,272
20808,273
20568,278
20520,278
20624,274
20560,272
20576,278
20584,279
20456,276
20552,271
20768,277
20768,278
20632,277
20472,272
20792,276
20696,278
21816,277
20800,272
23896,279
20776,277
20624,270
20592,274
21304,279
20792,278
20800,270
20768,275
20952,279
21072,278
20768,270
20560,275
20576,278
20296,277
20600,272
20952,274
20856,278
21064,278
20472,272
20576,273
20528,278
20592,280
20488,274
20576,271
20712,277
21032,280
20888,275
20664,271
20888,277
20568,279
4096,276
20616,271
21072,277
20832,279
20832,276
20896,270
20792,278
20456,279
20704,277
20752,270
22896,278
20448,278
20552,272
20624,272
20808,277
20448,279
20536,276
21816,272
20520,278
20560,279
20664,275
20488,271
20416,277
20648,279
20752,276
20848,271
20992,278
20696,279
20648,276
20704,271
20448,276
20712,279
20888,277
20640,271
20328,274
20552,278
20888,278
20752,271
20896,275
21496,278
20696,277
20744,270
20576,276
21144,279
21344,276
20632,271
20512,276
20568,278
20680,278
20672,271
20696,274
20728,277
20976,278
20624,272
20824,274
2192,278
20456,278
20480,277
20648,270
20432,275
20776,278
20768,277
20688,271
22208,278
20656,278
21176,277
21040,271
20672,277
20592,278
20440,276
20688,271
20840,277
20768,279
20896,277
20712,270
20640,276
21208,279
20912,277
21368,271
20624,278
20624,278
20808,276
22160,271
20752,278
20672,278
20760,274
20592,270
7264,279
20568,276
21648,271
20520,278
22928,278
20680,271
20424,272
20576,277
20920,278
20832,272
20896,272
20464,278
20656,278
20624,274
20464,271
20568,277
20496,278
20632,277
20496,271
20552,276
20800,278
20992,277
21056,271
20728,277
20728,279
6432,272
20576,271
20960,278
21200,277
20592,272
20704,271
20736,277
20760,279
20840,273
20616,271
20632,277
20472,278
20448,276
20760,271
20624,277
20600,278
20488,277
20616,270
20448,275
20552,278
21320,276
20840,270
20728,276
21216,279
20496,277
20560,270
20456,274
20552,278
20688,277
20792,272
20928,274
20440,278
20896,278
21032,270
20680,273
23272,279
20448,276
20592,270
20616,277
20848,278
20632,276
20392,270
20392,274
21744,279
20824,276
20472,270
21264,276
20768,279
21472,276
21024,270
20480,278
20792,278
20432,277
20432,270
20664,275
20984,278
21240,277
20920,270
20808,277
21720,278
20816,276
20744,270
20448,278
20872,279
20792,276
20760,270
20600,278
20896,278
23208,271
20760,273
20616,277
21576,277
20472,271
23160,277
20904,279
20920,273
20664,270
20984,277
21232,278
20552,273
20568,271
20552,277
20848,278
20984,274
20520,270
20520,277
20744,278
20624,276
20424,270
20824,277
20512,278
20768,277
20672,270
20792,274
20552,278
20608,277
20496,271
20600,273
20680,277
20776,277
21088,271
6632,276
20720,278
20672,276
20896,270
20936,277
20464,277
20456,276
20680,270
20768,276
22480,278
20848,272
20576,271
20840,278
20528,278
20544,275
20496,269
20328,275
20552,278
20880,277
20640,270
20720,275
20824,278
4704,276
4720,270
20376,277
20808,279
20504,276
4440,270
20432,275
20808,278
20376,276
20576,271
20624,274
20544,276
20832,277
20624,271
21160,273
20496,277
20744,277
20608,271
20576,271
22128,278
20744,277
20424,271
21904,276
20976,278
20920,276
20536,270
20720,275
20720,277
20888,277
20584,270
20584,274
21096,277
21176,276
20768,271
20392,274
20640,277
20656,277
20704,270
20424,272
20872,278
20712,277
20424,271
20376,270
20776,276
20720,277
20448,275
20680,270
20664,276
5792,277
20728,271
22624,276
20760,278
20848,276
20544,271
2888,272
21792,277
20512,277
20624,269
20392,272
20528,277
20560,277
20568,272
20784,270
20568,276
20344,277
20560,276
20744,270
20744,276
20704,278
20856,275
20456,269
20528,275
4688,278
20376,277
20368,270
20600,274
20568,276
20816,277
20760,271
20880,274
20656,277
20616,277
20408,270
20472,271
20472,276
20520,278
20608,274
20592,270
20496,277
21128,278
20728,275
20752,270
20576,277
20560,277
20880,275
20656,269
20592,275
20656,278
20544,276
20344,270
20688,273
6392,278
20624,274
20720,269
24672,277
20744,275
20592,269
20456,275
21392,277
20536,275
20640,269
20496,273
20624,277
20992,277
20888,269
20416,273
20600,276
20584,276
20392,271
20432,271
20520,276
20864,277
21120,270
21200,272
20936,277
21440,275
20456,270
3488,271
22024,277
21312,275
20624,269
20848,274
20464,277
20576,276
20736,270
21800,275
20536,277
20552,276
20608,270
20656,273
20376,276
20600,276
20888,269
21016,272
21080,277
20512,275
20792,270
22424,275
20704,276
21040,275
22416,269
20712,275
20672,276
20480,274
20712,269
20816,276
20744,278
20792,273
20648,269
20952,276
22248,276
20544,270
20424,269
20520,275
20736,277
20504,274
20712,269
20704,275
22960,276
20960,269
20456,271
20576,276
20856,277
20968,270
20760,271
20512,276
20840,277
20848,270
20904,271
20480,275
23792,274
20480,269
5240,275
21392,277
21496,269
20464,271
25944,276
20560,269
20528,272
20632,276
20800,276
20672,269
20488,272
20632,276
20616,276
20592,271
20512,269
20800,275
20968,277
22920,269
20640,274
20440,277
20600,277
20696,269
20728,271
20696,276
20344,277
20464,272
20568,270
20744,276
20752,277
20744,273
20496,269
20464,276
20768,276
20896,275
20824,268
20968,276
21144,278
20568,274
20712,269
20648,275
20432,277
20992,275
20472,269
21552,275
20704,277
20904,275
21704,269
20576,275
20976,277
20912,272
20656,269
20400,274
20520,277
23472,270
20648,272
20488,276
20424,275
20848,270
21056,271
20904,276
20624,276
20872,271
20768,271
20616,276
20592,277
20480,271
20720,269
20552,275
20568,277
20784,274
20840,269
13328,271
22400,273
20768,276
20992,275
21048,269
20816,274
5720,276
20616,274
20424,269
20576,275
22592,276
20752,270
20800,269
20944,276
20736,276
20808,271
20704,269
20712,276
20784,277
20824,272
20944,268
20872,275
21272,277
20792,269
20656,270
20776,275
20736,276
20448,272
20576,269
21136,275
20472,276
20664,273
20424,268
20600,276
20696,277
20648,275
20600,269
20896,274
21168,277
21448,273
20720,268
20664,276
4416,277
20528,275
20624,268
20544,276
20400,276
21872,274
21056,269
20904,275
20544,276
20520,273
21496,269
20376,275
20568,276
21056,273
21752,269
20792,275
20536,276
20608,272
20680,268
20720,275
21048,277
20696,272
20608,268
20608,274
20392,276
20904,275
21056,268
20720,275
20712,276
20784,274
20488,268
20640,275
20896,276
23976,268
20512,271
20624,275
20576,275
21272,270
20872,271
20496,275
20528,275
20528,271
20448,268
20472,275
20704,277
20392,274
20504,268
20728,274
20776,276
20600,275
21672,268
20392,274
20480,276
20504,275
20496,268
20616,273
20656,276
20696,276
2656,272
20616,269
7448,277
20424,275
20448,268
20504,272
20792,276
20584,275
20416,268
21600,273
21448,276
22464,271
20832,268
20728,274
20696,276
21264,271
5912,273
20376,275
20520,275
20720,269
20672,271
22056,276
5824,272
20520,268
22520,276
20608,276
20496,270
20584,270
20872,273
20512,275
20464,271
20840,269
20720,275
20536,276
21008,271
20680,268
20544,274
20400,276
20400,274
20752,268
20984,273
20792,275
21944,272
20472,268
20736,274
20616,275
6552,269
20624,270
20536,273
20664,275
20568,270
20944,269
20872,274
20512,275
20624,269
20768,269
20840,275
21520,276
20776,269
20904,270
20536,276
5968,274
20472,268
20856,273
20840,276
21360,274
20696,267
20712,274
20744,276
20856,275
20520,268
20856,272
20496,275
20576,275
20800,268
21320,273
20896,274
20608,274
20960,268
21472,274
21152,275
20824,274
20688,268
20768,274
20728,275
20424,274
20616,268
20648,272
21016,276
21144,274
20792,267
20472,272
20624,275
20416,274
20520,269
20824,271
20768,274
20544,275
20520,270
20424,268
21568,275
20944,275
20456,269
20880,270
21072,274
21008,274
20968,268
20920,270
20864,275
20936,275
20432,268
20904,270
20712,275
21056,274
21144,268
20856,271
5528,276
20744,274
21224,268
20776,274
20480,275
20600,274
20456,268
21272,273
20744,275
20800,274
20520,269
20528,273
20496,275
20688,274
20568,268
20488,269
20392,274
20800,275
20640,270
21160,270
20720,274
20496,275
20448,271
20640,268
20632,275
20712,276
20768,273
20840,267
20728,274
20712,276
20520,274
20968,268
20992,274
20752,276
20864,273
21448,268
6512,276
20888,274
20536,267
5104,274
20344,275
20624,274
20640,268
20776,272
20672,274
20712,273
21048,268
20608,272
7296,274
5312,267
20664,271
20720,274
20464,274
20448,269
20440,269
20448,274
20672,276
20792,270
20488,268
20456,274
20488,276
20440,274
20552,268
20456,273
20648,274
20792,274
20632,268
21696,273
20456,275
21528,273
20720,267
20520,273
20544,275
20592,274
8672,272
3464,274
20440,274
20824,267
20968,270
21472,275
20576,274
20472,268
20512,270
20544,274
20824,275
20768,269
20688,269
20344,273
20344,274
20560,272
20536,267
20448,273
20544,275
20464,273
20568,267
20544,271
21200,275
20672,274
20520,268
20696,271
20368,274
20528,274
20744,269
20800,269
20680,274
20744,275
21024,268
20832,269
20584,274
20832,275
20600,270
23240,273
20568,275
20768,274
21496,267
20704,274
20632,275
21272,273
20912,267
20648,273
20760,275
20632,274
20776,267
24744,274
20528,274
9040,274
24488,275
20520,267
20528,271
20528,273
20904,275
20680,268
20824,271
20712,274
20720,274
20696,267
20816,270
20768,274
20712,275
20832,268
20456,268
21720,274
20728,274
20472,268
21488,271
20472,274
21152,274
21120,266
21112,272
20696,275
20544,274
20488,268
20512,270
20424,273
20552,274
59472,271
20520,273
20560,274
20456,268
20608,269
21944,274
20872,274
21128,267
20696,271
20656,274
20696,273
20896,267
20616,270
20448,274
20752,274
21096,267
25216,274
20504,275
20528,269
21032,270
20680,273
20496,273
20384,270
20480,267
20584,274
21144,275
20488,271
20640,267
20440,273
23304,274
20496,268
21176,271
22376,274
20904,273
21160,267
20872,274
20696,275
20736,273
21888,268
21696,273
20544,273
20512,269
22824,272
20384,273
20416,273
20752,267
20680,270
20512,274
20648,274
22448,267
20520,272
20464,274
20464,273
20728,267
20752,270
23112,275
20752,272
21008,267
20688,273
20872,274
20984,271
21128,268
21032,274
20736,274
20656,270
20800,267
20568,273
20688,275
20784,272
20976,267
20472,273
20544,275
20760,273
22176,267
20800,272
20736,274
20760,269
20720,267
20976,272
21040,274
20744,269
20760,267
20480,273
20640,274
20728,271
20696,268
20736,273
20456,274
20400,273
20680,266
20816,272
20816,274
20576,273
20512,268
5728,272
20520,274
21376,271
20568,267
5104,273
4424,274
21024,268
20592,269
20704,274
21304,273
20624,268
20744,269
20712,274
20784,274
20688,269
20440,267
20720,272
21120,275
21240,269
21024,268
20784,272
20472,274
20664,269
20696,268
20744,273
20520,274
21096,269
20576,267
20344,273
20448,274
20520,273
20416,266
20904,272
21008,273
20440,273
21520,267
20824,273
20840,274
22424,268
20800,266
2872,274
20352,273
20752,273
20776,267
5096,273
20456,274
20632,272
20776,266
20864,273
20728,274
20744,273
21192,266
4704,272
20304,275
20656,273
20968,266
20432,273
20536,274
20632,272
20616,266
20728,271
2672,272
20544,274
20560,270
20752,267
20592,273
20424,274
21472,270
20664,267
20496,273
20816,274
21120,269
20824,266
20552,273
20744,274
20568,272
20848,267
21040,272
20744,274
20688,272
20952,268
5992,273
20408,273
20600,269
20464,268
20800,273
20544,274
21040,269
20920,266
20592,273
20800,274
20784,270
20624,266
20496,272
21976,273
20544,269
20984,266
21016,273
20416,275
20776,270
20864,266
20704,272
20800,274
20464,271
20720,267
5952,274
20632,273
20968,267
20496,268
20544,273
20592,273
20920,268
5296,271
20464,273
20472,273
20752,267
20520,267
21040,273
20928,274
20856,268
20600,268
20488,272
20704,274
20432,270
20448,266
20464,273
20584,274
20608,272
20816,266
20720,272
20440,273
20496,273
20696,267
20616,270
20440,272
20568,273
20520,267
20424,267
20472,272
20424,275
21624,268
20504,266
20432,272
20448,274
20296,272
20504,266
20592,272
20528,274
20560,273
20520,265
20392,267
20544,272
20664,273
20600,267
21104,267
20648,273
20520,273
8856,268
22920,273
20624,273
20552,266
20456,271
20520,273
20520,273
20480,266
20640,268
20520,273
21768,273
20664,266
95752,272
20504,267
20440,266
20696,273
20672,274
20712,269
20424,266
20672,272
20496,273
20488,272
20456,266
21576,273
20520,274
20416,271
20392,265
20672,270
4048,272
20464,272
21032,266
3472,269
20568,273
20608,272
20680,267
20640,266
20448,272
20696,273
20944,269
20544,266
7640,274
3040,272
20472,266
20568,270
21232,273
20432,272
20472,266
20448,267
20608,272
22120,272
20600,266
8976,274
23120,267
20576,266
24448,273
20728,271
22192,267
20520,273
20440,274
20472,269
20576,266
6680,273
20552,272
20752,266
20632,269
20816,272
20792,272
20744,267
20920,269
20480,273
20640,272
20504,267
20504,266
20992,273
20800,273
20632,268
20576,266
20792,272
22704,272
20680,265
21016,269
20640,273
20848,272
20928,265
21088,271
20744,272
20704,273
20824,266
20632,269
21144,272
20776,271
20776,266
20672,269
20504,272
20712,272
20920,266
21024,269
21272,271
20616,271
20560,266
20488,268
20528,274
20472,272
20576,267
20552,265
6656,273
24952,265
8368,273
4720,270
20792,265
9240,273
2832,272
20552,266
8504,273
22536,267
20544,266
20736,272
20336,273
20720,271
5776,268
20728,272
20592,273
20568,268
20760,265
23232,273
20744,271
20736,264
20720,271
21008,272
21056,270
20768,265
20840,271
20944,274
20840,271
21072,264
20896,272
20744,273
20664,271
20416,265
20520,270
20376,272
20408,271
20552,265
20520,267
20552,272
20640,274
20568,268
20624,266
20520,271
20456,273
20512,272
20720,265
8592,273
2616,271
20472,266
20544,268
20736,272
20632,272
20672,266
20792,267
20672,273
20904,273
21024,266
21544,269
20720,273
20920,272
20768,265
20528,267
20616,272
20680,272
20472,267
20544,265
20968,271
5720,272
20440,266
20696,268
23024,273
20544,272
20544,265
20488,270
20792,273
22472,269
20616,266
20560,271
20480,272
21288,270
21016,266
21168,271
20456,272
20536,269
20720,265
20496,272
20624,273
20904,270
20448,265
20448,270
20728,272
20880,271
20936,265
20624,269
20640,272
20768,271
21176,265
21424,271
20496,272
20672,271
20800,265
23784,272
20776,272
20592,266
20792,266
21296,272
20496,271
20560,266
20408,266
20704,271
20744,272
20760,266
20944,265
20696,272
20760,272
20592,268
20696,265
20824,271
20592,273
20592,271
20552,265
21120,271
24184,271
20664,264
20800,270
4192,272
20496,272
20776,265
20968,270
20912,273
21224,271
20768,265
20840,271
20920,273
20728,271
20392,266
24344,272
22256,271
20920,265
20816,272
20720,273
20800,270
20992,265
20792,272
20888,273
20536,271
20472,265
20448,269
20528,272
22448,270
20576,265
20800,271
20816,273
21160,271
20768,264
20664,271
21000,272
20704,270
20792,265
20976,271
20848,272
20848,270
20328,265
20648,271
20592,273
20728,271
21392,265
20720,271
20632,273
20472,271
20408,265
20736,269
20888,272
20576,272
21824,264
20800,270
20880,272
20696,271
21496,265
20768,271
20920,272
20872,270
20944,264
20816,271
20520,272
20456,270
20624,265
20888,271
20976,272
20600,270
21352,265
20720,271
20968,272
20840,270
20664,264
6216,272
20624,271
20800,266
20776,266
21008,271
20496,272
20984,265
20512,265
20680,271
21312,271
20920,266
20864,266
20992,272
21032,272
20480,267
20648,266
7992,272
22576,264
21488,270
5888,272
20568,268
21136,265
20608,271
20944,272
21096,266
20896,266
20880,271
20808,271
20656,266
20896,265
20632,272
20896,272
20752,266
21328,266
20984,272
20880,271
20784,265
20560,266
20768,271
20792,271
20672,266
20784,264
20752,271
20816,273
21400,265
20640,266
20440,271
20592,272
20856,267
20824,265
21200,271
20992,271
20512,266
20744,265
21072,271
20968,270
20920,265
21016,267
20528,271
20784,271
20896,265
20896,266
20872,272
20872,271
20992,265
20672,266
20448,271
4384,272
20456,267
21480,266
8248,272
24896,266
8424,271
24968,266
20944,271
20552,271
20744,265
20904,266
21056,271
21120,271
20736,265
20616,266
20832,272
20304,272
20536,267
20864,265
21040,271
21616,272
20672,265
20712,267
7512,272
23000,264
20648,269
6544,272
20688,266
20888,265
20696,270
24488,268
20504,264
20776,271
25432,268
20816,264
20448,270
20624,272
20728,270
20728,265
20520,271
20560,272
20760,270
20928,264
20880,271
20840,273
20952,270
20504,263
20448,269
20624,271
20768,270
20560,265
20544,267
20536,270
20768,271
20808,265
20912,267
20728,271
20712,271
20752,265
20672,266
20640,271
20560,272
20408,268
20720,264
20920,270
20448,272
20616,270
20512,264
11288,271
20696,265
20720,268
20432,270
20600,271
21368,264
20584,267
9072,270
23384,265
10008,270
4336,263
20840,269
20752,271
20512,271
20464,265
20584,267
20576,271
20496,271
20384,266
20872,264
20960,271
20792,271
21256,266
20584,265
20624,272
20656,271
20592,267
20928,264
20688,270
20920,272
20968,266
20864,264
20944,271
20904,272
20696,266
20920,264
20624,270
20736,272
20976,267
20496,265
20488,270
20504,271
20600,270
20920,264
21024,271
20568,272
20320,269
20640,263
20512,269
20616,271
20752,270
20672,264
20720,268
22928,272
20624,270
20472,263
20824,271
20808,271
20424,270
20624,265
21016,270
20728,271
20528,270
20528,264
20736,269
20536,272
20616,271
20624,264
20512,265
20816,271
20808,272
20648,265
21544,266
20744,271
20880,271
20640,264
20864,267
20528,271
20464,271
20816,265
20768,266
22408,271
20504,271
21920,264
20568,270
20696,271
20648,270
20584,264
20464,268
20568,272
20744,271
20744,264
21120,268
4000,271
20576,271
20768,265
20840,267
20792,271
5984,270
20600,263
20736,270
8520,269
22880,266
20392,271
20624,271
20808,266
20632,264
20672,270
6264,270
20712,263
22416,270
6448,271
4688,264
20320,268
8128,270
3464,266
20560,264
20440,270
6680,270
4240,263
20672,269
7544,270
24400,266
8688,271
5824,264
20552,270
20608,272
20776,269
20896,263
20944,270
21168,271
20792,269
20536,262
20776,269
20824,271
20840,270
20824,262
20656,270
20568,271
20400,270
20544,264
20432,266
20672,271
25064,264
20576,265
20480,270
20720,270
20696,266
20792,263
20624,271
20920,271
20520,267
20776,263
20632,270
20656,271
20728,268
20448,263
20496,270
20688,271
21016,270
20784,263
20680,270
20648,270
20744,270
21016,263
20632,268
20800,271
21120,269
20688,264
20656,269
20880,270
20664,269
21064,263
20864,269
21096,271
24576,263
22888,270
20448,271
20720,267
20840,262
20640,270
20832,271
20800,267
21016,263
20672,270
20576,271
20552,268
20744,263
20552,269
20632,270
20560,269
20680,262
20920,269
20688,271
20784,269
20608,262
20664,267
3048,270
20456,271
20456,265
20472,263
20584,270
20936,272
20824,268
20560,262
20760,270
20768,271
20912,269
20872,262
20632,270
20744,271
21912,265
21192,264
21168,271
20888,270
20592,264
20944,264
20744,269
6752,269
20616,263
20848,270
8656,269
4784,263
21128,269
20784,271
21168,265
20672,263
20984,270
20504,270
20400,267
20672,263
20744,270
21040,272
20600,269
20688,262
20712,270
20736,272
20768,269
20728,263
21752,271
20760,271
20776,267
20784,263
20552,269
20744,271
20536,269
20520,262
20704,269
20840,271
4888,268
20648,263
20880,270
20792,271
4024,269
20616,263
20808,270
8776,268
25448,270
7976,269
5024,263
20888,270
20464,271
20936,266
20344,264
21456,269
20520,271
20672,266
20512,263
20688,270
20848,271
20840,268
20816,263
21184,269
20744,272
20640,267
20672,263
20640,270
20592,271
20496,270
20344,263
20416,267
20424,271
7296,265
20616,264
20680,270
20640,270
20872,266
20776,263
20912,270
8896,264
23920,270
20480,271
20720,269
20792,262
20736,270
20744,271
20760,269
21000,262
20560,269
20864,271
20568,270
20496,263
20488,267
20456,271
20472,270
20528,263
20888,265
20848,270
20504,270
3152,267
20624,262
21040,269
20520,270
4208,268
20568,263
20664,271
8912,267
4120,263
20768,270
8392,267
22920,266
20624,270
21280,270
20640,263
20752,266
20696,270
22520,269
21272,262
20728,270
20944,271
21056,267
20800,263
21944,270
20568,270
20632,266
20456,263
20576,269
20736,270
20776,267
20680,262
20744,270
20896,271
20792,268
20312,262
20680,269
21024,270
20544,269
20544,263
20416,268
21096,271
20912,270
22424,263
20704,269
20936,271
20744,267
20672,263
20712,270
20864,270
20992,267
22376,266
20656,270
21368,270
20744,263
20592,266
20464,270
20816,270
3928,264
21504,266
20776,271
8264,262
4136,265
20768,270
20800,270
20448,263
20544,264
20968,270
20992,270
20856,263
20840,264
20672,270
20648,270
20816,263
20392,263
20680,269
20752,270
20864,265
20944,263
20728,269
20696,271
20736,266
20680,263
20968,269
20920,271
20968,266
21096,263
20648,270
9240,263
3128,263
20848,269
9240,263
24560,269
20424,271
20440,267
20872,263
21024,269
20688,271
20568,268
21656,263
20536,269
9504,263
4544,267
20712,270
7672,263
24792,270
8848,263
24880,270
20808,270
21040,262
20608,265
20424,269
20848,270
20872,264
20792,264
20848,270
21064,270
21072,263
20568,265
20816,269
20896,269
20920,263
20824,264
20912,270
20760,269
20824,262
20688,265
20648,270
20912,270
20736,264
20656,264
20696,269
20720,271
20696,265
20488,263
20736,269
21792,270
21488,262
20968,266
22128,271
20744,268
20688,262
20368,267
21976,271
6344,263
20664,265
20896,270
20648,270
4096,263
20864,265
20616,270
8568,263
23160,268
20832,270
6600,263
21928,269
20680,271
20840,270
21144,262
20744,269
20816,271
20736,269
20728,262
20864,268
20872,271
20992,268
20672,262
20864,269
20640,271
20592,268
20520,262
20720,267
20896,270
20744,269
20544,262
21040,267
20744,270
20488,270
20464,263
20696,264
23376,271
20776,266
21080,263
20624,269
20952,271
20704,267
20696,262
20856,268
20872,271
22512,262
20912,266
20368,270
20464,271
20496,265
20656,262
20888,269
20784,270
21120,265
20552,263
20696,269
20784,270
20728,265
20832,262
20776,269
21176,270
20680,265
20952,263
20784,270
20672,271
20832,265
20568,262
20568,269
21216,271
21048,265
20968,262
20960,269
20928,270
21272,264
21120,265
20744,270
21040,270
20728,263
20824,264
20992,270
20784,270
20800,263
20416,264
20392,269
20640,270
20552,265
20488,263
20792,269
20688,271
7184,262
20616,267
20608,270
20480,269
20896,262
20536,266
20416,269
20504,270
20672,264
22144,266
21768,271
7176,262
20664,266
20896,270
9152,261
23704,269
9752,262
4928,269
20720,270
7648,262
4608,269
20552,270
8096,262
3336,265
20456,269
9792,262
24712,270
20608,268
20688,261
20768,266
20880,271
20720,269
20672,261
20768,265
20968,269
20616,269
20992,262
20968,266
20952,270
20968,269
22448,262
20416,267
20608,270
20464,268
20648,262
20648,268
20616,270
20800,268
6672,264
22672,270
8384,263
25128,269
20640,268
20768,261
20544,266
20608,271
20496,269
20832,262
20816,265
20776,269
20488,269
20560,263
20456,264
20568,268
20608,269
20912,264
20640,262
20664,268
20776,270
21312,263
20856,263
20640,268
20656,270
20872,264
21096,262
21096,269
20824,270
22192,261
21520,268
20984,270
20520,269
5272,262
20360,269
20624,270
20416,268
20736,261
20648,266
21064,269
20472,268
20520,263
21840,267
20792,270
9208,263
4240,269
20736,270
8376,262
24560,270
20984,266
20616,262
21568,268
20424,270
20576,267
4576,261
20600,268
20688,271
20736,268
20680,262
20832,268
21048,270
8712,262
24400,271
20576,268
20784,262
20616,268
20584,269
20968,268
20416,261
20760,267
20632,269
10344,262
24528,270
8736,262
24584,269
8808,261
23960,269
20872,267
5112,262
20440,268
23528,269
5816,261
4000,268
20488,270
20664,268
20712,262
20680,268
20520,269
20824,267
21096,261
20736,268
20656,270
20752,268
21136,260
20680,269
20920,270
20768,268
20656,262
20664,267
20512,269
20384,269
20712,263
2792,262
20648,269
20688,270
20528,266
20544,262
20440,268
20504,269
20496,268
20464,262
20640,266
23272,269
20768,264
20744,262
21024,267
20928,268
20696,264
20480,262
20400,268
20568,270
9024,262
24600,270
8584,262
23400,269
10144,262
4680,268
20712,269
7928,261
4224,267
20704,270
20544,265
20648,262
21072,268
20872,269
20760,265
20904,262
20944,268
20864,269
21432,263
20752,263
20768,268
20776,269
20592,263
20624,262
20640,268
20768,270
20616,265
20552,261
20472,268
20488,269
20744,268
20872,262
21888,267
20448,269
20680,267
20624,262
20504,268
20672,269
20784,267
20616,261
20672,267
20456,268
20440,269
20456,262
20664,263
20960,267
20768,268
20896,262
20464,264
20488,268
20600,269
20672,264
20360,261
20376,267
20336,270
20688,268
21216,261
21016,267
21400,269
20864,266
20568,261
20704,268
20912,269
20800,267
5512,263
20640,268
20400,269
20400,265
20752,261
20720,267
20752,270
20496,267
22728,264
22056,268
20952,268
21024,262
20736,267
20608,269
20448,268
7272,263
5224,269
20856,268
7248,263
20592,268
20832,269
20736,263
21120,263
20720,268
20920,269
20632,263
20464,262
20552,267
20632,269
20536,265
20608,261
20416,268
20800,268
20672,267
20760,261
2696,265
20368,268
20736,268
20832,262
20656,264
20768,268
20856,269
20864,261
21120,263
20968,268
20568,269
20696,262
4872,265
4216,268
20720,269
20592,262
20552,263
21072,268
20696,269
20752,261
4736,265
24576,269
8720,265
24680,268
20784,262
20920,265
20544,268
20792,268
20592,262
20680,263
20976,267
20448,270
20664,264
20552,262
20536,267
20744,269
20496,266
20616,260
20848,268
20560,270
20464,268
20608,261
20880,265
20936,268
20888,268
20944,261
20656,266
20648,267
20664,268
20592,261
20704,265
20592,268
20672,267
21304,261
21328,267
20744,268
20920,267
20928,260
20344,265
20560,268
20752,268
20512,262
20496,263
20624,268
20768,269
20568,263
20632,261
20600,267
20696,269
20496,265
20688,261
20568,268
20936,270
21016,266
20712,261
20480,267
20744,270
20624,268
20720,262
20856,267
20992,269
20848,267
20744,262
21048,267
20744,269
20416,267
20496,261
20728,266
20864,268
20744,267
21000,260
20816,266
20920,268
20768,267
20944,260
21160,268
20528,269
20416,267
20368,262
20416,263
20632,267
20568,267
20544,262
20640,262
20800,268
20912,268
20720,262
20960,262
20616,267
21072,268
20688,263
20920,262
21144,268
21104,268
20680,261
20760,263
20568,267
20816,269
20520,263
20824,262
22400,268
20600,268
9048,266
24672,267
8680,266
23840,268
20864,261
20944,265
20472,268
20560,269
20464,263
20584,261
20784,267
20648,269
20536,265
20592,261
20744,267
20832,268
20744,267
20896,261
20624,267
20624,268
20536,267
20912,260
20944,267
20392,269
20432,268
20520,261
20720,265
20720,268
20744,268
20696,262
20872,264
20536,267
20936,268
20904,262
20816,265
20568,268
22288,267
21216,261
20696,266
20616,268
20488,267
20744,261
20648,266
20440,268
20600,268
20568,261
20696,263
20720,267
20512,268
20352,263
20352,261
20480,267
20656,268
20520,266
20768,260
20440,266
20448,268
20336,268
20624,261
20848,264
20680,267
20736,267
20528,262
20696,264
20664,268
20936,268
20728,262
21112,263
20832,268
20640,268
20584,263
20784,263
20736,267
20480,269
20664,264
20720,261
20560,266
20520,268
20496,266
20752,261
20776,268
20768,269
20448,267
20624,261
20968,266
20568,269
20648,267
20648,261
20760,265
20952,268
20896,268
21040,261
20768,266
20808,267
20888,267
20784,261
20608,266
20544,268
20568,267
20568,261
20640,262
20568,267
20592,268
20568,264
20496,261
20712,266
20776,268
20496,266
20608,261
20664,268
20736,268
20720,266
20520,261
20872,267
20896,268
22208,263
20856,262
20760,266
20752,268
20800,263
20944,260
20792,266
20976,269
20752,263
20896,260
20776,267
20368,269
20416,267
20728,260
20672,267
20768,268
20672,266
20632,260
20360,266
20376,267
20576,267
20680,261
20712,263
20920,267
20720,268
20880,261
20544,262
20648,267
20720,267
20680,262
20416,260
21992,267
20584,267
20368,261
5080,265
20552,268
20560,268
20392,262
20664,261
20672,266
20992,267
20624,263
21504,262
20720,267
20552,268
20544,263
20824,262
20696,266
20640,269
20616,264
20648,260
20656,267
20808,268
20664,266
20760,260
21016,267
20696,268
20720,267
20712,261
21016,266
20888,268
20856,267
20832,261
20768,267
20392,267
20464,266
20600,259
20592,266
20576,268
20768,267
20696,260
20928,265
21016,267
21024,267
20616,259
22808,266
20664,268
20848,264
20632,260
20728,267
20720,268
20760,266
20680,259
20456,267
20344,267
20488,267
20480,261
23320,266
21048,268
20784,263
20592,261
20672,266
20696,267
20904,264
20520,261
4192,267
20456,269
20744,266
20416,260
20696,266
20856,268
20568,267
21416,260
20824,266
20544,267
20608,267
20920,260
20520,265
20768,268
20712,267
20832,260
6128,267
20496,268
20632,266
9456,267
24072,265
20872,260
5744,267
3104,268
20520,263
8248,267
4896,267
20568,263
7992,267
3848,268
22968,260
21240,264
20640,267
20816,266
20488,261
20616,263
20400,267
20712,268
20968,261
20888,262
20968,266
20712,266
20568,262
20440,261
4112,267
20320,268
20560,264
20616,260
20808,267
20856,268
20720,266
20632,260
20720,266
20520,267
20640,267
20648,260
20664,266
20848,267
20792,266
20944,260
20616,265
20576,268
20480,267
20688,260
20544,262
20528,266
20608,268
20720,263
22120,263
20608,267
21552,266
20800,259
20592,264
20520,267
20544,266
21392,261
20752,265
20888,267
20840,266
20704,260
20592,264
22864,267
20648,266
20680,261
20432,267
22656,267
20776,263
20672,261
20656,266
20640,267
20720,263
20872,261
20328,267
20672,268
20544,266
20552,259
5752,267
20592,267
20720,263
8648,266
5648,267
20544,260
20616,264
20872,267
20616,266
20544,261
20440,262
22640,267
20656,266
21000,260
6944,267
4616,267
20520,261
8184,267
4392,267
20792,261
7920,267
3080,267
20352,265
20304,261
20600,265
22656,268
20416,263
21056,260
22472,267
20824,266
21040,259
20768,264
20568,266
20888,266
20488,260
20608,262
21064,267
20864,267
21176,260
20848,264
20760,267
20504,266
20448,261
20360,262
20552,267
20920,267
2920,266
20624,260
20480,267
20464,268
20664,266
23552,261
20680,266
20624,267
20720,262
20672,260
20728,266
20952,267
20552,263
9288,267
24600,262
8672,266
4864,266
20712,260
7808,266
4752,267
20928,260
20856,263
20792,266
20472,266
20648,261
20680,262
20576,266
20560,267
20440,263
20352,260
20552,266
20944,268
21120,264
20736,259
20696,266
22144,267
20520,262
20632,260
20744,265
20872,267
20520,263
20560,260
20712,266
20576,267
20672,264
20520,259
20320,265
23072,266
20576,262
20632,260
20688,266
20496,268
20528,265
20600,259
20856,265
20416,267
20608,266
21824,261
20560,266
20528,267
21112,266
20800,260
20696,266
20632,267
20520,265
20592,260
20648,265
20920,267
20560,266
20552,259
20768,263
20752,267
21128,266
20600,260
20576,263
20712,266
20376,266
20680,261
20672,261
20720,266
20512,267
20440,263
20696,259
20640,267
20640,268
20544,266
20432,260
20664,265
20568,266
20616,266
20656,259
20616,264
20480,267
20480,267
20448,260
20688,261
20736,266
20536,267
20848,262
20472,260
20640,266
20808,267
20568,264
20584,260
20624,267
20840,267
20440,264
20616,259
20664,265
20552,267
20888,265
20712,260
20768,264
20624,265
20640,265
20808,260
20800,263
21560,266
20736,265
20728,260
7912,267
4736,266
20880,259
20640,264
3752,267
20464,265
20960,259
20912,263
20768,266
20808,265
20880,259
20656,262
20664,266
20456,266
20952,261
8280,266
23392,265
20824,259
25384,267
20688,264
20704,260
20592,266
20448,267
20472,265
20680,259
20896,265
20880,267
20832,266
20896,259
20640,266
20576,267
20480,266
20712,260
20864,263
20720,266
20280,266
20672,260
20672,262
20968,266
20416,266
22832,260
20640,265
20720,267
20688,266
20872,260
20840,265
20936,267
20392,265
21376,259
20528,264
20368,267
20472,267
20408,261
20592,261
6496,268
23960,260
20840,264
20656,268
20416,265
20544,260
20728,261
20584,266
20672,266
20784,261
23408,266
20784,266
20592,264
20816,259
20840,265
20896,268
20680,264
20528,259
20632,264
21024,267
20584,266
20808,259
20496,263
20464,266
20656,266
20824,260
20896,263
20744,266
20896,265
22368,260
20712,266
20560,266
20664,265
20712,259
20592,265
20696,268
20592,265
20728,260
8960,267
4656,266
20392,259
8384,268
4728,265
20672,259
7912,267
3344,266
20696,259
20544,261
20408,265
21944,266
20792,259
8760,266
23096,261
21072,261
21392,267
20560,266
20560,260
20472,259
20680,266
20432,267
20424,264
20552,259
20976,266
20952,266
20744,264
20744,259
20672,267
20672,267
20896,264
20472,258
20496,264
20576,267
20464,266
20520,260
20440,262
20704,265
21104,266
21952,259
20832,264
20656,267
20992,264
20832,259
8472,267
4808,265
20536,259
25328,266
20560,265
20488,259
20520,265
20632,267
20680,265
20872,258
20880,265
20872,267
20816,265
20768,258
20720,262
20520,267
20696,266
20920,259
20768,261
5624,267
20520,265
20440,259
20952,264
20960,266
20800,264
20768,259
20992,265
20672,266
20512,264
20408,259
9400,267
4800,265
20664,259
20768,266
20592,266
20392,265
20584,259
20656,264
20800,266
20392,265
20440,258
20728,260
20768,266
20552,266
20504,260
20840,260
20448,265
23008,265
20352,259
20616,263
20608,266
20688,266
20776,260
2584,259
20440,266
20632,267
20744,264
20624,259
20648,265
4416,266
20512,264
20552,259
20416,264
20696,266
20600,265
20896,258
20680,262
20440,266
20624,266
20544,260
20736,260
20552,266
20600,266
21176,260
20792,260
20800,266
20544,266
20744,261
20408,258
20608,266
4120,267
20560,264
20496,259
8824,266
3904,265
20872,258
8392,266
2696,264
20520,259
20992,262
20576,265
20264,266
20576,259
20616,260
20896,266
20472,266
20632,261
20896,260
20600,265
20968,266
20768,261
20656,259
20344,266
20560,267
20640,264
20504,259
20664,264
6824,266
2776,263
20448,259
20472,266
20608,266
20656,264
20480,258
20808,264
20680,266
20616,265
20768,258
20792,263
21016,266
20888,266
20832,259
20824,263
20992,265
20880,265
20792,259
20584,264
2720,265
20528,266
20728,261
20520,258
20448,265
20520,266
20664,264
21072,259
20696,265
20536,267
20696,264
20880,259
20944,266
6296,266
20368,260
20696,259
7864,266
22648,258
21008,264
20480,266
20592,266
20824,259
20656,261
20520,265
20568,265
20832,260
20664,259
20968,265
20584,265
20416,261
20592,259
20640,265
20792,267
21008,261
20872,259
20696,265
20664,267
20816,263
20904,259
20656,264
20584,267
20368,264
20648,258
20872,264
20752,265
20776,265
20544,258
20544,263
20576,266
20776,266
20536,258
20760,262
20584,267
20688,266
20560,260
20528,259
20696,265
20712,265
20824,260
20608,259
20672,265
20816,267
20544,263
20616,259
20600,265
20488,266
20704,264
22272,258
20608,264
20672,267
20544,263
20760,259
20680,265
22504,266
20872,259
20592,260
20752,265
22120,265
20920,258
20968,263
21800,267
22024,260
20840,258
8840,266
4392,259
20744,261
8176,265
4384,259
20720,260
8192,265
3640,260
20456,257
21144,265
4488,266
20408,261
20568,259
8952,265
24048,258
20736,265
25336,263
20656,258
9320,265
3608,261
20464,259
9032,266
4800,259
20664,260
21248,264
20792,265
20648,259
20760,261
20992,265
20952,264
20648,258
20536,260
20640,266
20696,266
21160,259
20768,261
20696,265
20656,266
20592,261
20528,258
20896,266
20584,266
21112,261
21520,260
7976,266
4456,259
20728,259
8160,265
3080,263
20496,258
9752,267
5120,258
20464,260
20592,265
20776,265
20768,259
20712,260
20600,265
20568,266
20480,261
20592,259
20688,265
20912,266
20624,263
20888,258
20944,265
20696,266
20632,264
20848,258
20944,264
20704,266
20624,264
20896,259
21016,264
20568,266
20600,264
20792,258
20816,265
20816,265
20576,264
20408,257
20520,262
24104,264
20656,259
20696,260
21024,265
20696,264
23096,258
20936,265
20744,265
20664,264
20768,259
20888,264
20864,265
20736,264
20472,258
20624,263
20608,266
20616,264
21120,257
20568,263
20664,266
20560,265
20592,258
20992,261
21016,265
20776,265
20728,258
20728,261
20792,265
20864,264
20888,258
20512,262
20448,265
20712,265
20704,259
20536,258
20712,265
20728,266
20880,260
20512,259
20696,264
20888,266
20720,263
20888,259
20864,264
20680,266
20488,263
20496,258
20840,265
20568,266
20504,264
20640,257
20464,262
20584,265
20464,266
20544,258
20472,260
20520,266
20328,266
21504,260
20664,259
8152,265
5768,257
20576,261
20744,265
20832,265
20624,258
20440,260
20392,264
20488,266
21280,259
20688,259
20520,265
20672,266
20376,262
20448,257
20376,264
20584,266
20624,264
20720,258
20728,263
20832,265
21064,264
20560,258
20768,264
20544,265
20784,264
20720,257
20808,261
20696,265
20912,265
20592,257
21080,260
20496,265
20552,266
20456,259
20880,259
20920,264
20640,265
23096,256
20448,263
20736,265
20864,264
20408,257
20552,262
20552,265
20640,265
20688,257
20728,260
20464,265
20632,265
20536,260
20616,258
20984,264
20672,266
20592,261
20816,258
20856,264
20672,265
20592,262
20544,258
20584,265
20672,266
20904,263
20392,257
20648,263
20712,266
21032,264
20560,257
20440,262
20520,265
20440,265
20624,258
20496,259
20736,265
20824,265
20664,260
20504,258
20368,263
20416,266
20688,264
20616,257
20640,264
21120,265
20776,264
20552,257
20616,264
20936,265
20856,263
20296,257
20600,262
20616,265
5128,265
20384,257
20552,262
20504,265
20904,265
20352,258
20648,260
20640,265
20768,264
20824,258
20712,260
20520,265
20616,266
22736,257
20536,262
20656,265
20488,264
20568,258
20728,259
21776,265
20408,265
20392,258
20656,260
21176,264
20824,265
20544,258
20816,259
20592,264
20576,265
20904,259
20480,259
24440,266
22800,257
20496,261
20544,265
20416,265
20528,259
20720,257
20752,264
20968,266
20512,261
20488,257
20464,265
20424,265
2504,265
20344,259
20432,259
20720,264
6168,264
25488,264
7872,263
5016,257
20808,264
20496,265
20640,264
21424,257
20592,264
20400,265
20656,263
20696,258
20824,264
20392,265
20736,264
22672,258
20624,264
20664,266
20992,262
20816,257
20608,265
7944,264
2648,258
20408,259
20808,265
6216,263
20560,256
20536,263
9032,264
4744,257
20704,263
7520,263
5080,257
20744,265
20944,266
20832,262
5760,260
20696,264
6344,263
4664,257
20720,264
7856,263
23912,262
9656,263
20664,257
20592,264
20912,265
20800,263
20736,257
20768,264
8664,263
4552,257
21400,265
7320,263
3648,256
20688,264
20648,265
20976,263
23008,258
20656,264
20624,265
20704,260
20672,257
20792,264
20784,265
20744,261
21096,256
20504,263
7768,263
24336,263
20816,265
20936,264
20464,256
20616,263
20808,265
20912,264
20760,257
20624,262
20608,265
20520,264
20680,258
4600,262
20592,265
6728,260
4064,257
20624,264
8456,262
4352,257
20536,263
8472,261
4320,257
20568,263
8336,261
4056,257
20576,264
20600,265
3136,264
20400,257
20720,261
20936,264
